Record Length,2.500000e+03,,   0.000000000000,  -0.25200,
Sample Interval,4.000000e-03,,   0.004000000000,  -0.25200,
Trigger Point,0.000000000000e+00,,   0.008000000000,  -0.25200,
,,,   0.012000000000,  -0.25200,
,,,   0.016000000000,  -0.25200,
,,,   0.020000000000,  -0.25200,
Source,CH2,,   0.024000000000,  -0.25200,
Vertical Units,V,,   0.028000000000,  -0.25200,
Vertical Scale,5.000000e-02,,   0.032000000000,  -0.25200,
Vertical Offset,-4.000000e-03,,   0.036000000000,  -0.25200,
Horizontal Units,s,,   0.040000000000,  -0.25200,
Horizontal Scale,1.000000e+00,,   0.044000000000,  -0.25200,
Pt Fmt,Y,,   0.048000000000,  -0.25200,
Yzero,0.000000e+00,,   0.052000000000,  -0.25200,
Probe Atten,1.000000e+00,,   0.056000000000,  -0.25200,
Model Number,TDS2014C,,   0.060000000000,  -0.25200,
Serial Number,C043432,,   0.064000000000,  -0.25200,
Firmware Version,FV:v24.26,,   0.068000000000,  -0.25200,
,,,0.072000000000,  -0.25200,
,,,0.076000000000,  -0.25200,
,,,0.080000000000,  -0.25200,
,,,0.084000000000,  -0.25200,
,,,0.088000000000,  -0.25200,
,,,0.092000000000,  -0.25200,
,,,0.096000000000,  -0.25200,
,,,0.100000000000,  -0.25200,
,,,0.104000000000,  -0.25200,
,,,0.108000000000,  -0.25200,
,,,0.112000000000,  -0.25200,
,,,0.116000000000,  -0.25200,
,,,0.120000000000,  -0.25200,
,,,0.124000000000,  -0.25200,
,,,0.128000000000,  -0.25200,
,,,0.132000000000,  -0.25200,
,,,0.136000000000,  -0.25200,
,,,0.140000000000,  -0.25200,
,,,0.144000000000,  -0.25200,
,,,0.148000000000,  -0.25200,
,,,0.152000000000,  -0.25200,
,,,0.156000000000,  -0.25200,
,,,0.160000000000,  -0.25200,
,,,0.164000000000,  -0.25200,
,,,0.168000000000,  -0.25200,
,,,0.172000000000,  -0.25200,
,,,0.176000000000,  -0.25200,
,,,0.180000000000,  -0.25200,
,,,0.184000000000,  -0.25200,
,,,0.188000000000,  -0.25200,
,,,0.192000000000,  -0.25200,
,,,0.196000000000,  -0.25200,
,,,0.200000000000,  -0.25200,
,,,0.204000000000,  -0.25200,
,,,0.208000000000,  -0.25200,
,,,0.212000000000,  -0.25200,
,,,0.216000000000,  -0.25200,
,,,0.220000000000,  -0.25200,
,,,0.224000000000,  -0.25200,
,,,0.228000000000,  -0.25200,
,,,0.232000000000,  -0.25200,
,,,0.236000000000,  -0.25200,
,,,0.240000000000,  -0.25200,
,,,0.244000000000,  -0.25200,
,,,0.248000000000,  -0.25200,
,,,0.252000000000,  -0.25200,
,,,0.256000000000,  -0.25200,
,,,0.260000000000,  -0.25200,
,,,0.264000000000,  -0.25200,
,,,0.268000000000,  -0.25200,
,,,0.272000000000,  -0.25200,
,,,0.276000000000,  -0.25200,
,,,0.280000000000,  -0.25200,
,,,0.284000000000,  -0.25200,
,,,0.288000000000,  -0.25200,
,,,0.292000000000,  -0.25200,
,,,0.296000000000,  -0.25200,
,,,0.300000000000,  -0.25200,
,,,0.304000000000,  -0.25200,
,,,0.308000000000,  -0.25200,
,,,0.312000000000,  -0.25200,
,,,0.316000000000,  -0.25200,
,,,0.320000000000,  -0.25200,
,,,0.324000000000,  -0.25200,
,,,0.328000000000,  -0.25200,
,,,0.332000000000,  -0.25200,
,,,0.336000000000,  -0.25200,
,,,0.340000000000,  -0.25200,
,,,0.344000000000,  -0.25200,
,,,0.348000000000,  -0.25200,
,,,0.352000000000,  -0.25200,
,,,0.356000000000,  -0.25200,
,,,0.360000000000,  -0.25200,
,,,0.364000000000,  -0.25200,
,,,0.368000000000,  -0.25200,
,,,0.372000000000,  -0.25200,
,,,0.376000000000,  -0.25200,
,,,0.380000000000,  -0.25200,
,,,0.384000000000,  -0.25200,
,,,0.388000000000,  -0.25200,
,,,0.392000000000,  -0.25200,
,,,0.396000000000,  -0.25200,
,,,0.400000000000,  -0.25200,
,,,0.404000000000,  -0.25200,
,,,0.408000000000,  -0.25200,
,,,0.412000000000,  -0.25200,
,,,0.416000000000,  -0.25200,
,,,0.420000000000,  -0.25200,
,,,0.424000000000,  -0.25200,
,,,0.428000000000,  -0.25200,
,,,0.432000000000,  -0.25200,
,,,0.436000000000,  -0.25200,
,,,0.440000000000,  -0.25200,
,,,0.444000000000,  -0.25200,
,,,0.448000000000,  -0.25200,
,,,0.452000000000,   0.00800,
,,,0.456000000000,   0.00000,
,,,0.460000000000,  -0.00800,
,,,0.464000000000,  -0.00400,
,,,0.468000000000,   0.00200,
,,,0.472000000000,   0.00800,
,,,0.476000000000,   0.01000,
,,,0.480000000000,   0.00200,
,,,0.484000000000,  -0.01200,
,,,0.488000000000,  -0.00800,
,,,0.492000000000,   0.00200,
,,,0.496000000000,   0.00000,
,,,0.500000000000,  -0.00400,
,,,0.504000000000,  -0.01200,
,,,0.508000000000,  -0.00600,
,,,0.512000000000,  -0.00200,
,,,0.516000000000,   0.00400,
,,,0.520000000000,   0.00000,
,,,0.524000000000,   0.00000,
,,,0.528000000000,   0.01200,
,,,0.532000000000,   0.00200,
,,,0.536000000000,  -0.00600,
,,,0.540000000000,  -0.01600,
,,,0.544000000000,  -0.01400,
,,,0.548000000000,   0.00200,
,,,0.552000000000,   0.01000,
,,,0.556000000000,   0.00600,
,,,0.560000000000,  -0.00400,
,,,0.564000000000,  -0.00400,
,,,0.568000000000,   0.00200,
,,,0.572000000000,   0.00800,
,,,0.576000000000,   0.00800,
,,,0.580000000000,   0.00600,
,,,0.584000000000,  -0.01200,
,,,0.588000000000,  -0.00600,
,,,0.592000000000,   0.00200,
,,,0.596000000000,   0.00600,
,,,0.600000000000,   0.00400,
,,,0.604000000000,  -0.00200,
,,,0.608000000000,  -0.00200,
,,,0.612000000000,   0.00000,
,,,0.616000000000,  -0.00200,
,,,0.620000000000,   0.00000,
,,,0.624000000000,  -0.00600,
,,,0.628000000000,  -0.00200,
,,,0.632000000000,   0.00400,
,,,0.636000000000,   0.00400,
,,,0.640000000000,  -0.00600,
,,,0.644000000000,  -0.00800,
,,,0.648000000000,  -0.00200,
,,,0.652000000000,   0.00600,
,,,0.656000000000,   0.00600,
,,,0.660000000000,  -0.00200,
,,,0.664000000000,  -0.00200,
,,,0.668000000000,  -0.00400,
,,,0.672000000000,   0.00200,
,,,0.676000000000,   0.00600,
,,,0.680000000000,   0.00000,
,,,0.684000000000,  -0.00600,
,,,0.688000000000,  -0.00600,
,,,0.692000000000,  -0.00400,
,,,0.696000000000,  -0.00200,
,,,0.700000000000,  -0.01000,
,,,0.704000000000,  -0.00400,
,,,0.708000000000,   0.00600,
,,,0.712000000000,   0.01200,
,,,0.716000000000,   0.00600,
,,,0.720000000000,  -0.00400,
,,,0.724000000000,  -0.00800,
,,,0.728000000000,  -0.00600,
,,,0.732000000000,   0.00000,
,,,0.736000000000,   0.00400,
,,,0.740000000000,   0.00200,
,,,0.744000000000,  -0.00400,
,,,0.748000000000,  -0.00200,
,,,0.752000000000,   0.00600,
,,,0.756000000000,   0.00600,
,,,0.760000000000,   0.00000,
,,,0.764000000000,  -0.00200,
,,,0.768000000000,   0.00200,
,,,0.772000000000,   0.00800,
,,,0.776000000000,   0.00400,
,,,0.780000000000,  -0.00800,
,,,0.784000000000,  -0.01200,
,,,0.788000000000,  -0.01000,
,,,0.792000000000,   0.00200,
,,,0.796000000000,   0.01000,
,,,0.800000000000,   0.00600,
,,,0.804000000000,   0.00400,
,,,0.808000000000,   0.00200,
,,,0.812000000000,   0.00800,
,,,0.816000000000,   0.00200,
,,,0.820000000000,  -0.00600,
,,,0.824000000000,  -0.01000,
,,,0.828000000000,  -0.00800,
,,,0.832000000000,  -0.00400,
,,,0.836000000000,   0.00400,
,,,0.840000000000,   0.00000,
,,,0.844000000000,  -0.00400,
,,,0.848000000000,   0.00000,
,,,0.852000000000,   0.00200,
,,,0.856000000000,   0.00200,
,,,0.860000000000,  -0.00400,
,,,0.864000000000,  -0.00600,
,,,0.868000000000,  -0.00200,
,,,0.872000000000,   0.00600,
,,,0.876000000000,   0.00200,
,,,0.880000000000,  -0.00400,
,,,0.884000000000,  -0.00400,
,,,0.888000000000,   0.00400,
,,,0.892000000000,   0.00800,
,,,0.896000000000,   0.00400,
,,,0.900000000000,  -0.00600,
,,,0.904000000000,  -0.01200,
,,,0.908000000000,  -0.00400,
,,,0.912000000000,   0.00400,
,,,0.916000000000,   0.00600,
,,,0.920000000000,   0.00000,
,,,0.924000000000,  -0.00400,
,,,0.928000000000,   0.00000,
,,,0.932000000000,   0.00200,
,,,0.936000000000,   0.00200,
,,,0.940000000000,  -0.00400,
,,,0.944000000000,  -0.00400,
,,,0.948000000000,   0.00200,
,,,0.952000000000,   0.00600,
,,,0.956000000000,   0.00200,
,,,0.960000000000,  -0.00400,
,,,0.964000000000,  -0.00800,
,,,0.968000000000,   0.00200,
,,,0.972000000000,   0.01000,
,,,0.976000000000,   0.00600,
,,,0.980000000000,  -0.00400,
,,,0.984000000000,  -0.01200,
,,,0.988000000000,  -0.00400,
,,,0.992000000000,   0.00400,
,,,0.996000000000,   0.00600,
,,,1.000000000000,   0.00200,
,,,1.004000000000,   0.00200,
,,,1.008000000000,  -0.00200,
,,,1.012000000000,   0.00400,
,,,1.016000000000,   0.00200,
,,,1.020000000000,  -0.00400,
,,,1.024000000000,  -0.00400,
,,,1.028000000000,   0.00200,
,,,1.032000000000,   0.00800,
,,,1.036000000000,   0.00400,
,,,1.040000000000,   0.00200,
,,,1.044000000000,  -0.00400,
,,,1.048000000000,  -0.00200,
,,,1.052000000000,   0.00600,
,,,1.056000000000,   0.00800,
,,,1.060000000000,   0.00000,
,,,1.064000000000,  -0.00600,
,,,1.068000000000,   0.00000,
,,,1.072000000000,   0.00400,
,,,1.076000000000,   0.00200,
,,,1.080000000000,  -0.00400,
,,,1.084000000000,  -0.00600,
,,,1.088000000000,  -0.00200,
,,,1.092000000000,   0.00800,
,,,1.096000000000,   0.00800,
,,,1.100000000000,   0.00000,
,,,1.104000000000,  -0.00400,
,,,1.108000000000,  -0.00400,
,,,1.112000000000,   0.00400,
,,,1.116000000000,   0.00600,
,,,1.120000000000,   0.00000,
,,,1.124000000000,  -0.00600,
,,,1.128000000000,  -0.00600,
,,,1.132000000000,   0.00800,
,,,1.136000000000,   0.01600,
,,,1.140000000000,   0.00600,
,,,1.144000000000,  -0.00600,
,,,1.148000000000,  -0.00400,
,,,1.152000000000,  -0.00400,
,,,1.156000000000,  -0.00200,
,,,1.160000000000,   0.00000,
,,,1.164000000000,  -0.00400,
,,,1.168000000000,  -0.00200,
,,,1.172000000000,   0.00800,
,,,1.176000000000,   0.00400,
,,,1.180000000000,  -0.00400,
,,,1.184000000000,  -0.00200,
,,,1.188000000000,   0.00800,
,,,1.192000000000,   0.01000,
,,,1.196000000000,   0.00800,
,,,1.200000000000,   0.00200,
,,,1.204000000000,  -0.00600,
,,,1.208000000000,  -0.00200,
,,,1.212000000000,   0.00600,
,,,1.216000000000,   0.00200,
,,,1.220000000000,  -0.00200,
,,,1.224000000000,  -0.00200,
,,,1.228000000000,   0.00000,
,,,1.232000000000,   0.01000,
,,,1.236000000000,   0.00800,
,,,1.240000000000,   0.00000,
,,,1.244000000000,  -0.00600,
,,,1.248000000000,   0.00400,
,,,1.252000000000,   0.00800,
,,,1.256000000000,   0.00800,
,,,1.260000000000,   0.00000,
,,,1.264000000000,  -0.00400,
,,,1.268000000000,   0.00200,
,,,1.272000000000,   0.00600,
,,,1.276000000000,   0.00400,
,,,1.280000000000,   0.00200,
,,,1.284000000000,   0.00200,
,,,1.288000000000,   0.00400,
,,,1.292000000000,   0.00400,
,,,1.296000000000,   0.00400,
,,,1.300000000000,  -0.00600,
,,,1.304000000000,  -0.00400,
,,,1.308000000000,   0.00200,
,,,1.312000000000,   0.01000,
,,,1.316000000000,   0.00600,
,,,1.320000000000,   0.00200,
,,,1.324000000000,   0.00600,
,,,1.328000000000,   0.00800,
,,,1.332000000000,   0.01000,
,,,1.336000000000,   0.00400,
,,,1.340000000000,  -0.00600,
,,,1.344000000000,  -0.01200,
,,,1.348000000000,  -0.00800,
,,,1.352000000000,   0.00200,
,,,1.356000000000,   0.00400,
,,,1.360000000000,  -0.00200,
,,,1.364000000000,  -0.00200,
,,,1.368000000000,   0.00800,
,,,1.372000000000,   0.01200,
,,,1.376000000000,   0.00800,
,,,1.380000000000,  -0.00200,
,,,1.384000000000,  -0.01000,
,,,1.388000000000,  -0.01000,
,,,1.392000000000,  -0.00200,
,,,1.396000000000,   0.00000,
,,,1.400000000000,  -0.00200,
,,,1.404000000000,   0.00000,
,,,1.408000000000,   0.00800,
,,,1.412000000000,   0.01200,
,,,1.416000000000,   0.00600,
,,,1.420000000000,  -0.00200,
,,,1.424000000000,  -0.00200,
,,,1.428000000000,  -0.00200,
,,,1.432000000000,   0.00200,
,,,1.436000000000,   0.00200,
,,,1.440000000000,   0.00000,
,,,1.444000000000,  -0.00400,
,,,1.448000000000,  -0.00200,
,,,1.452000000000,   0.00400,
,,,1.456000000000,   0.00400,
,,,1.460000000000,   0.00200,
,,,1.464000000000,  -0.00200,
,,,1.468000000000,   0.00000,
,,,1.472000000000,  -0.00400,
,,,1.476000000000,   0.00400,
,,,1.480000000000,  -0.00200,
,,,1.484000000000,  -0.00600,
,,,1.488000000000,   0.00000,
,,,1.492000000000,   0.00600,
,,,1.496000000000,   0.00200,
,,,1.500000000000,  -0.00400,
,,,1.504000000000,  -0.00400,
,,,1.508000000000,   0.00200,
,,,1.512000000000,   0.00800,
,,,1.516000000000,   0.00400,
,,,1.520000000000,  -0.00200,
,,,1.524000000000,  -0.00400,
,,,1.528000000000,  -0.00200,
,,,1.532000000000,   0.00200,
,,,1.536000000000,   0.00600,
,,,1.540000000000,   0.00200,
,,,1.544000000000,  -0.00200,
,,,1.548000000000,   0.00000,
,,,1.552000000000,   0.01000,
,,,1.556000000000,   0.00600,
,,,1.560000000000,   0.00000,
,,,1.564000000000,  -0.00600,
,,,1.568000000000,   0.00000,
,,,1.572000000000,   0.00800,
,,,1.576000000000,   0.00800,
,,,1.580000000000,   0.00200,
,,,1.584000000000,  -0.00200,
,,,1.588000000000,  -0.00200,
,,,1.592000000000,   0.00600,
,,,1.596000000000,   0.00800,
,,,1.600000000000,   0.00200,
,,,1.604000000000,  -0.00400,
,,,1.608000000000,  -0.00200,
,,,1.612000000000,   0.00600,
,,,1.616000000000,   0.00800,
,,,1.620000000000,   0.00200,
,,,1.624000000000,   0.00400,
,,,1.628000000000,   0.01400,
,,,1.632000000000,   0.01600,
,,,1.636000000000,   0.00600,
,,,1.640000000000,  -0.00400,
,,,1.644000000000,  -0.00600,
,,,1.648000000000,   0.00400,
,,,1.652000000000,   0.00600,
,,,1.656000000000,   0.00200,
,,,1.660000000000,  -0.00600,
,,,1.664000000000,  -0.00400,
,,,1.668000000000,  -0.00200,
,,,1.672000000000,   0.00800,
,,,1.676000000000,   0.01000,
,,,1.680000000000,   0.00200,
,,,1.684000000000,  -0.00600,
,,,1.688000000000,   0.00200,
,,,1.692000000000,   0.00600,
,,,1.696000000000,   0.00800,
,,,1.700000000000,   0.00800,
,,,1.704000000000,   0.00400,
,,,1.708000000000,   0.00000,
,,,1.712000000000,   0.00000,
,,,1.716000000000,   0.00200,
,,,1.720000000000,   0.00000,
,,,1.724000000000,  -0.00200,
,,,1.728000000000,   0.00400,
,,,1.732000000000,   0.00600,
,,,1.736000000000,   0.00600,
,,,1.740000000000,  -0.00400,
,,,1.744000000000,  -0.00800,
,,,1.748000000000,   0.00600,
,,,1.752000000000,   0.01200,
,,,1.756000000000,   0.00800,
,,,1.760000000000,  -0.00400,
,,,1.764000000000,  -0.00400,
,,,1.768000000000,  -0.00200,
,,,1.772000000000,   0.01000,
,,,1.776000000000,   0.01800,
,,,1.780000000000,   0.00800,
,,,1.784000000000,  -0.00400,
,,,1.788000000000,  -0.00600,
,,,1.792000000000,   0.00200,
,,,1.796000000000,   0.00800,
,,,1.800000000000,  -0.00200,
,,,1.804000000000,   0.00200,
,,,1.808000000000,  -0.00200,
,,,1.812000000000,   0.00000,
,,,1.816000000000,  -0.00200,
,,,1.820000000000,  -0.00400,
,,,1.824000000000,   0.00000,
,,,1.828000000000,   0.00200,
,,,1.832000000000,   0.00200,
,,,1.836000000000,  -0.00200,
,,,1.840000000000,  -0.00800,
,,,1.844000000000,   0.00000,
,,,1.848000000000,   0.00800,
,,,1.852000000000,   0.01000,
,,,1.856000000000,   0.00600,
,,,1.860000000000,  -0.00400,
,,,1.864000000000,  -0.00800,
,,,1.868000000000,   0.00200,
,,,1.872000000000,   0.00800,
,,,1.876000000000,   0.00400,
,,,1.880000000000,  -0.00200,
,,,1.884000000000,  -0.00400,
,,,1.888000000000,   0.00600,
,,,1.892000000000,   0.01400,
,,,1.896000000000,   0.00800,
,,,1.900000000000,  -0.00400,
,,,1.904000000000,  -0.00800,
,,,1.908000000000,  -0.00400,
,,,1.912000000000,   0.00600,
,,,1.916000000000,   0.00800,
,,,1.920000000000,   0.00200,
,,,1.924000000000,   0.00000,
,,,1.928000000000,   0.00600,
,,,1.932000000000,   0.00800,
,,,1.936000000000,   0.00200,
,,,1.940000000000,  -0.00200,
,,,1.944000000000,  -0.00400,
,,,1.948000000000,   0.00600,
,,,1.952000000000,   0.01800,
,,,1.956000000000,   0.01200,
,,,1.960000000000,   0.00600,
,,,1.964000000000,  -0.00200,
,,,1.968000000000,   0.00400,
,,,1.972000000000,   0.01200,
,,,1.976000000000,   0.01200,
,,,1.980000000000,   0.00600,
,,,1.984000000000,   0.00200,
,,,1.988000000000,   0.01400,
,,,1.992000000000,   0.01800,
,,,1.996000000000,   0.02200,
,,,2.000000000000,   0.01600,
,,,2.004000000000,   0.02600,
,,,2.008000000000,   0.03600,
,,,2.012000000000,   0.05600,
,,,2.016000000000,   0.05000,
,,,2.020000000000,   0.04800,
,,,2.024000000000,   0.05400,
,,,2.028000000000,   0.06800,
,,,2.032000000000,   0.07600,
,,,2.036000000000,   0.08400,
,,,2.040000000000,   0.08400,
,,,2.044000000000,   0.08400,
,,,2.048000000000,   0.09600,
,,,2.052000000000,   0.09800,
,,,2.056000000000,   0.09600,
,,,2.060000000000,   0.08200,
,,,2.064000000000,   0.07400,
,,,2.068000000000,   0.07200,
,,,2.072000000000,   0.07400,
,,,2.076000000000,   0.06800,
,,,2.080000000000,   0.05000,
,,,2.084000000000,   0.04400,
,,,2.088000000000,   0.03400,
,,,2.092000000000,   0.02600,
,,,2.096000000000,   0.01600,
,,,2.100000000000,   0.00800,
,,,2.104000000000,   0.00000,
,,,2.108000000000,  -0.00400,
,,,2.112000000000,  -0.00400,
,,,2.116000000000,  -0.02200,
,,,2.120000000000,  -0.03000,
,,,2.124000000000,  -0.03200,
,,,2.128000000000,  -0.02400,
,,,2.132000000000,  -0.02400,
,,,2.136000000000,  -0.03800,
,,,2.140000000000,  -0.04400,
,,,2.144000000000,  -0.04800,
,,,2.148000000000,  -0.04400,
,,,2.152000000000,  -0.03800,
,,,2.156000000000,  -0.03400,
,,,2.160000000000,  -0.03800,
,,,2.164000000000,  -0.04400,
,,,2.168000000000,  -0.04000,
,,,2.172000000000,  -0.02800,
,,,2.176000000000,  -0.03000,
,,,2.180000000000,  -0.04000,
,,,2.184000000000,  -0.04000,
,,,2.188000000000,  -0.03200,
,,,2.192000000000,  -0.02000,
,,,2.196000000000,  -0.02400,
,,,2.200000000000,  -0.03600,
,,,2.204000000000,  -0.04200,
,,,2.208000000000,  -0.03400,
,,,2.212000000000,  -0.02400,
,,,2.216000000000,  -0.02400,
,,,2.220000000000,  -0.02600,
,,,2.224000000000,  -0.02800,
,,,2.228000000000,  -0.02000,
,,,2.232000000000,  -0.01400,
,,,2.236000000000,  -0.01800,
,,,2.240000000000,  -0.02600,
,,,2.244000000000,  -0.02800,
,,,2.248000000000,  -0.02000,
,,,2.252000000000,  -0.01400,
,,,2.256000000000,  -0.01800,
,,,2.260000000000,  -0.02400,
,,,2.264000000000,  -0.02400,
,,,2.268000000000,  -0.01400,
,,,2.272000000000,  -0.00400,
,,,2.276000000000,   0.00200,
,,,2.280000000000,  -0.01600,
,,,2.284000000000,  -0.02200,
,,,2.288000000000,  -0.01400,
,,,2.292000000000,   0.00000,
,,,2.296000000000,  -0.00200,
,,,2.300000000000,  -0.00600,
,,,2.304000000000,  -0.01000,
,,,2.308000000000,  -0.00400,
,,,2.312000000000,  -0.00200,
,,,2.316000000000,  -0.00400,
,,,2.320000000000,  -0.01200,
,,,2.324000000000,  -0.01800,
,,,2.328000000000,  -0.01000,
,,,2.332000000000,  -0.00400,
,,,2.336000000000,  -0.00600,
,,,2.340000000000,  -0.00800,
,,,2.344000000000,  -0.00800,
,,,2.348000000000,   0.00000,
,,,2.352000000000,   0.00400,
,,,2.356000000000,   0.00000,
,,,2.360000000000,  -0.00400,
,,,2.364000000000,   0.00200,
,,,2.368000000000,   0.00400,
,,,2.372000000000,   0.00800,
,,,2.376000000000,  -0.00400,
,,,2.380000000000,  -0.01400,
,,,2.384000000000,  -0.01200,
,,,2.388000000000,   0.00000,
,,,2.392000000000,   0.00800,
,,,2.396000000000,   0.00800,
,,,2.400000000000,   0.00000,
,,,2.404000000000,  -0.00600,
,,,2.408000000000,  -0.00600,
,,,2.412000000000,   0.00000,
,,,2.416000000000,   0.00200,
,,,2.420000000000,   0.00400,
,,,2.424000000000,   0.00200,
,,,2.428000000000,  -0.00200,
,,,2.432000000000,  -0.00400,
,,,2.436000000000,  -0.01200,
,,,2.440000000000,  -0.01200,
,,,2.444000000000,  -0.00400,
,,,2.448000000000,   0.00200,
,,,2.452000000000,   0.01000,
,,,2.456000000000,   0.00600,
,,,2.460000000000,  -0.00600,
,,,2.464000000000,  -0.01600,
,,,2.468000000000,  -0.00800,
,,,2.472000000000,   0.00000,
,,,2.476000000000,   0.00200,
,,,2.480000000000,  -0.00400,
,,,2.484000000000,   0.00000,
,,,2.488000000000,   0.00600,
,,,2.492000000000,   0.00800,
,,,2.496000000000,   0.00200,
,,,2.500000000000,  -0.00800,
,,,2.504000000000,  -0.00600,
,,,2.508000000000,   0.00000,
,,,2.512000000000,   0.00200,
,,,2.516000000000,   0.00200,
,,,2.520000000000,  -0.00600,
,,,2.524000000000,  -0.00600,
,,,2.528000000000,   0.00600,
,,,2.532000000000,   0.01000,
,,,2.536000000000,   0.00600,
,,,2.540000000000,  -0.00600,
,,,2.544000000000,  -0.00800,
,,,2.548000000000,  -0.00400,
,,,2.552000000000,   0.00200,
,,,2.556000000000,  -0.00200,
,,,2.560000000000,  -0.00800,
,,,2.564000000000,  -0.01000,
,,,2.568000000000,   0.00200,
,,,2.572000000000,   0.00800,
,,,2.576000000000,   0.00600,
,,,2.580000000000,  -0.00400,
,,,2.584000000000,  -0.00600,
,,,2.588000000000,   0.00000,
,,,2.592000000000,   0.00400,
,,,2.596000000000,   0.00000,
,,,2.600000000000,  -0.00600,
,,,2.604000000000,  -0.00400,
,,,2.608000000000,   0.00400,
,,,2.612000000000,   0.01000,
,,,2.616000000000,   0.01000,
,,,2.620000000000,  -0.00200,
,,,2.624000000000,  -0.00800,
,,,2.628000000000,  -0.00400,
,,,2.632000000000,  -0.00200,
,,,2.636000000000,   0.00200,
,,,2.640000000000,   0.00400,
,,,2.644000000000,   0.00400,
,,,2.648000000000,   0.00600,
,,,2.652000000000,   0.00800,
,,,2.656000000000,   0.00200,
,,,2.660000000000,  -0.01000,
,,,2.664000000000,  -0.01000,
,,,2.668000000000,   0.00200,
,,,2.672000000000,   0.01200,
,,,2.676000000000,   0.00800,
,,,2.680000000000,  -0.00200,
,,,2.684000000000,  -0.00200,
,,,2.688000000000,   0.00400,
,,,2.692000000000,   0.00600,
,,,2.696000000000,   0.00400,
,,,2.700000000000,   0.00200,
,,,2.704000000000,  -0.00200,
,,,2.708000000000,   0.00200,
,,,2.712000000000,   0.00400,
,,,2.716000000000,   0.00200,
,,,2.720000000000,  -0.00200,
,,,2.724000000000,  -0.00200,
,,,2.728000000000,   0.00200,
,,,2.732000000000,   0.00200,
,,,2.736000000000,   0.00200,
,,,2.740000000000,   0.00000,
,,,2.744000000000,   0.00200,
,,,2.748000000000,   0.01000,
,,,2.752000000000,   0.01000,
,,,2.756000000000,   0.00200,
,,,2.760000000000,  -0.01200,
,,,2.764000000000,  -0.01000,
,,,2.768000000000,  -0.00400,
,,,2.772000000000,   0.01000,
,,,2.776000000000,   0.01800,
,,,2.780000000000,   0.00200,
,,,2.784000000000,  -0.01200,
,,,2.788000000000,  -0.01000,
,,,2.792000000000,  -0.00400,
,,,2.796000000000,   0.00000,
,,,2.800000000000,  -0.00600,
,,,2.804000000000,  -0.00800,
,,,2.808000000000,  -0.00200,
,,,2.812000000000,   0.00200,
,,,2.816000000000,   0.00200,
,,,2.820000000000,  -0.00200,
,,,2.824000000000,   0.00400,
,,,2.828000000000,   0.00800,
,,,2.832000000000,   0.00800,
,,,2.836000000000,   0.00000,
,,,2.840000000000,  -0.01200,
,,,2.844000000000,  -0.00800,
,,,2.848000000000,   0.00200,
,,,2.852000000000,   0.00800,
,,,2.856000000000,   0.00600,
,,,2.860000000000,   0.00000,
,,,2.864000000000,  -0.00400,
,,,2.868000000000,   0.00000,
,,,2.872000000000,   0.00400,
,,,2.876000000000,  -0.00200,
,,,2.880000000000,  -0.00400,
,,,2.884000000000,  -0.00800,
,,,2.888000000000,  -0.00400,
,,,2.892000000000,   0.00200,
,,,2.896000000000,  -0.00200,
,,,2.900000000000,  -0.00600,
,,,2.904000000000,  -0.00400,
,,,2.908000000000,   0.00600,
,,,2.912000000000,   0.01200,
,,,2.916000000000,   0.00200,
,,,2.920000000000,  -0.01000,
,,,2.924000000000,  -0.01200,
,,,2.928000000000,  -0.00600,
,,,2.932000000000,   0.00800,
,,,2.936000000000,   0.01000,
,,,2.940000000000,  -0.00200,
,,,2.944000000000,  -0.00600,
,,,2.948000000000,   0.00000,
,,,2.952000000000,   0.00200,
,,,2.956000000000,   0.00200,
,,,2.960000000000,  -0.00200,
,,,2.964000000000,  -0.00400,
,,,2.968000000000,   0.00200,
,,,2.972000000000,   0.00800,
,,,2.976000000000,   0.00200,
,,,2.980000000000,  -0.00400,
,,,2.984000000000,  -0.00400,
,,,2.988000000000,   0.00200,
,,,2.992000000000,   0.00800,
,,,2.996000000000,   0.00600,
,,,3.000000000000,  -0.00800,
,,,3.004000000000,  -0.01000,
,,,3.008000000000,  -0.00600,
,,,3.012000000000,   0.00800,
,,,3.016000000000,   0.00000,
,,,3.020000000000,  -0.00600,
,,,3.024000000000,  -0.00800,
,,,3.028000000000,   0.00400,
,,,3.032000000000,   0.01000,
,,,3.036000000000,   0.00800,
,,,3.040000000000,   0.00200,
,,,3.044000000000,  -0.00200,
,,,3.048000000000,   0.00600,
,,,3.052000000000,   0.01000,
,,,3.056000000000,   0.00800,
,,,3.060000000000,  -0.00400,
,,,3.064000000000,  -0.01200,
,,,3.068000000000,  -0.00600,
,,,3.072000000000,   0.00200,
,,,3.076000000000,   0.00000,
,,,3.080000000000,  -0.00200,
,,,3.084000000000,  -0.00600,
,,,3.088000000000,   0.00000,
,,,3.092000000000,   0.01000,
,,,3.096000000000,   0.01000,
,,,3.100000000000,   0.00200,
,,,3.104000000000,  -0.00800,
,,,3.108000000000,  -0.00400,
,,,3.112000000000,   0.00400,
,,,3.116000000000,   0.00400,
,,,3.120000000000,   0.00400,
,,,3.124000000000,   0.00200,
,,,3.128000000000,   0.00800,
,,,3.132000000000,   0.00600,
,,,3.136000000000,   0.00200,
,,,3.140000000000,  -0.00600,
,,,3.144000000000,  -0.01000,
,,,3.148000000000,  -0.00400,
,,,3.152000000000,   0.00200,
,,,3.156000000000,  -0.00200,
,,,3.160000000000,   0.00000,
,,,3.164000000000,  -0.00400,
,,,3.168000000000,   0.00000,
,,,3.172000000000,   0.00800,
,,,3.176000000000,   0.01000,
,,,3.180000000000,  -0.00200,
,,,3.184000000000,  -0.00800,
,,,3.188000000000,  -0.00200,
,,,3.192000000000,   0.00800,
,,,3.196000000000,   0.00800,
,,,3.200000000000,   0.00200,
,,,3.204000000000,   0.00200,
,,,3.208000000000,   0.01000,
,,,3.212000000000,   0.00800,
,,,3.216000000000,   0.00000,
,,,3.220000000000,  -0.01000,
,,,3.224000000000,  -0.00600,
,,,3.228000000000,   0.00400,
,,,3.232000000000,   0.00800,
,,,3.236000000000,   0.00800,
,,,3.240000000000,  -0.00200,
,,,3.244000000000,   0.00200,
,,,3.248000000000,   0.00400,
,,,3.252000000000,   0.00600,
,,,3.256000000000,  -0.00400,
,,,3.260000000000,  -0.00400,
,,,3.264000000000,  -0.00200,
,,,3.268000000000,   0.00200,
,,,3.272000000000,   0.00800,
,,,3.276000000000,   0.01000,
,,,3.280000000000,  -0.00200,
,,,3.284000000000,  -0.00200,
,,,3.288000000000,   0.00400,
,,,3.292000000000,   0.00600,
,,,3.296000000000,   0.00600,
,,,3.300000000000,   0.00400,
,,,3.304000000000,  -0.00600,
,,,3.308000000000,  -0.01000,
,,,3.312000000000,  -0.00600,
,,,3.316000000000,  -0.00400,
,,,3.320000000000,  -0.00600,
,,,3.324000000000,   0.00200,
,,,3.328000000000,   0.01200,
,,,3.332000000000,   0.01200,
,,,3.336000000000,   0.00200,
,,,3.340000000000,  -0.00600,
,,,3.344000000000,  -0.00800,
,,,3.348000000000,   0.00200,
,,,3.352000000000,   0.01000,
,,,3.356000000000,   0.00400,
,,,3.360000000000,  -0.00400,
,,,3.364000000000,  -0.00800,
,,,3.368000000000,   0.00200,
,,,3.372000000000,   0.01200,
,,,3.376000000000,   0.00600,
,,,3.380000000000,   0.00000,
,,,3.384000000000,  -0.00400,
,,,3.388000000000,  -0.00600,
,,,3.392000000000,   0.00200,
,,,3.396000000000,   0.00200,
,,,3.400000000000,   0.00000,
,,,3.404000000000,  -0.00800,
,,,3.408000000000,   0.00000,
,,,3.412000000000,   0.01000,
,,,3.416000000000,   0.01200,
,,,3.420000000000,   0.00200,
,,,3.424000000000,  -0.00400,
,,,3.428000000000,   0.00600,
,,,3.432000000000,   0.01600,
,,,3.436000000000,   0.00800,
,,,3.440000000000,  -0.00800,
,,,3.444000000000,  -0.01400,
,,,3.448000000000,   0.00000,
,,,3.452000000000,   0.00800,
,,,3.456000000000,   0.00400,
,,,3.460000000000,   0.00000,
,,,3.464000000000,  -0.00200,
,,,3.468000000000,   0.00000,
,,,3.472000000000,   0.00400,
,,,3.476000000000,   0.00200,
,,,3.480000000000,  -0.00400,
,,,3.484000000000,  -0.00600,
,,,3.488000000000,  -0.00400,
,,,3.492000000000,   0.00400,
,,,3.496000000000,  -0.00200,
,,,3.500000000000,  -0.00800,
,,,3.504000000000,  -0.00400,
,,,3.508000000000,   0.00400,
,,,3.512000000000,   0.00800,
,,,3.516000000000,   0.00800,
,,,3.520000000000,   0.00800,
,,,3.524000000000,   0.00400,
,,,3.528000000000,   0.00000,
,,,3.532000000000,   0.00000,
,,,3.536000000000,  -0.00400,
,,,3.540000000000,  -0.00800,
,,,3.544000000000,  -0.00600,
,,,3.548000000000,   0.00600,
,,,3.552000000000,   0.01000,
,,,3.556000000000,  -0.00200,
,,,3.560000000000,  -0.00800,
,,,3.564000000000,  -0.00800,
,,,3.568000000000,  -0.00200,
,,,3.572000000000,   0.00600,
,,,3.576000000000,   0.00400,
,,,3.580000000000,  -0.00400,
,,,3.584000000000,  -0.01000,
,,,3.588000000000,  -0.00200,
,,,3.592000000000,   0.00400,
,,,3.596000000000,   0.00400,
,,,3.600000000000,   0.00600,
,,,3.604000000000,   0.00000,
,,,3.608000000000,  -0.00400,
,,,3.612000000000,   0.00000,
,,,3.616000000000,  -0.00400,
,,,3.620000000000,  -0.00600,
,,,3.624000000000,   0.00200,
,,,3.628000000000,   0.00600,
,,,3.632000000000,   0.00600,
,,,3.636000000000,   0.00200,
,,,3.640000000000,   0.00000,
,,,3.644000000000,  -0.00200,
,,,3.648000000000,  -0.00400,
,,,3.652000000000,   0.00200,
,,,3.656000000000,   0.00200,
,,,3.660000000000,  -0.00200,
,,,3.664000000000,   0.00400,
,,,3.668000000000,   0.00000,
,,,3.672000000000,   0.00200,
,,,3.676000000000,  -0.00200,
,,,3.680000000000,  -0.00400,
,,,3.684000000000,  -0.00400,
,,,3.688000000000,   0.00000,
,,,3.692000000000,   0.00400,
,,,3.696000000000,   0.00200,
,,,3.700000000000,  -0.00200,
,,,3.704000000000,   0.00200,
,,,3.708000000000,   0.01000,
,,,3.712000000000,   0.01200,
,,,3.716000000000,   0.00800,
,,,3.720000000000,   0.00200,
,,,3.724000000000,   0.00400,
,,,3.728000000000,   0.01400,
,,,3.732000000000,   0.02000,
,,,3.736000000000,   0.01400,
,,,3.740000000000,   0.00200,
,,,3.744000000000,  -0.00200,
,,,3.748000000000,   0.01000,
,,,3.752000000000,   0.02200,
,,,3.756000000000,   0.02200,
,,,3.760000000000,   0.01600,
,,,3.764000000000,   0.01600,
,,,3.768000000000,   0.02200,
,,,3.772000000000,   0.03400,
,,,3.776000000000,   0.03800,
,,,3.780000000000,   0.03600,
,,,3.784000000000,   0.04600,
,,,3.788000000000,   0.06200,
,,,3.792000000000,   0.06800,
,,,3.796000000000,   0.06800,
,,,3.800000000000,   0.07200,
,,,3.804000000000,   0.07800,
,,,3.808000000000,   0.08800,
,,,3.812000000000,   0.09400,
,,,3.816000000000,   0.08800,
,,,3.820000000000,   0.08200,
,,,3.824000000000,   0.08200,
,,,3.828000000000,   0.08000,
,,,3.832000000000,   0.07800,
,,,3.836000000000,   0.06600,
,,,3.840000000000,   0.05000,
,,,3.844000000000,   0.04400,
,,,3.848000000000,   0.04200,
,,,3.852000000000,   0.03600,
,,,3.856000000000,   0.02400,
,,,3.860000000000,   0.01000,
,,,3.864000000000,  -0.00200,
,,,3.868000000000,  -0.00600,
,,,3.872000000000,  -0.01000,
,,,3.876000000000,  -0.02200,
,,,3.880000000000,  -0.03400,
,,,3.884000000000,  -0.03800,
,,,3.888000000000,  -0.03400,
,,,3.892000000000,  -0.03200,
,,,3.896000000000,  -0.03800,
,,,3.900000000000,  -0.05000,
,,,3.904000000000,  -0.05400,
,,,3.908000000000,  -0.04800,
,,,3.912000000000,  -0.04400,
,,,3.916000000000,  -0.04800,
,,,3.920000000000,  -0.04200,
,,,3.924000000000,  -0.04400,
,,,3.928000000000,  -0.03400,
,,,3.932000000000,  -0.03200,
,,,3.936000000000,  -0.04200,
,,,3.940000000000,  -0.04800,
,,,3.944000000000,  -0.04400,
,,,3.948000000000,  -0.03800,
,,,3.952000000000,  -0.02800,
,,,3.956000000000,  -0.03000,
,,,3.960000000000,  -0.04000,
,,,3.964000000000,  -0.03400,
,,,3.968000000000,  -0.02200,
,,,3.972000000000,  -0.01800,
,,,3.976000000000,  -0.02400,
,,,3.980000000000,  -0.03800,
,,,3.984000000000,  -0.03600,
,,,3.988000000000,  -0.02400,
,,,3.992000000000,  -0.01200,
,,,3.996000000000,  -0.01600,
,,,4.000000000000,  -0.03000,
,,,4.004000000000,  -0.02600,
,,,4.008000000000,  -0.01600,
,,,4.012000000000,  -0.00400,
,,,4.016000000000,  -0.01200,
,,,4.020000000000,  -0.02400,
,,,4.024000000000,  -0.02400,
,,,4.028000000000,  -0.01200,
,,,4.032000000000,  -0.00400,
,,,4.036000000000,  -0.00600,
,,,4.040000000000,  -0.01400,
,,,4.044000000000,  -0.01600,
,,,4.048000000000,  -0.01400,
,,,4.052000000000,  -0.00200,
,,,4.056000000000,  -0.00200,
,,,4.060000000000,  -0.00400,
,,,4.064000000000,  -0.00400,
,,,4.068000000000,  -0.00400,
,,,4.072000000000,  -0.00400,
,,,4.076000000000,  -0.00600,
,,,4.080000000000,  -0.01200,
,,,4.084000000000,  -0.01800,
,,,4.088000000000,  -0.01000,
,,,4.092000000000,  -0.00200,
,,,4.096000000000,  -0.00600,
,,,4.100000000000,  -0.00400,
,,,4.104000000000,   0.00200,
,,,4.108000000000,   0.00400,
,,,4.112000000000,   0.00000,
,,,4.116000000000,  -0.00600,
,,,4.120000000000,  -0.01200,
,,,4.124000000000,  -0.00200,
,,,4.128000000000,   0.01000,
,,,4.132000000000,   0.01400,
,,,4.136000000000,   0.00200,
,,,4.140000000000,  -0.00600,
,,,4.144000000000,  -0.01600,
,,,4.148000000000,  -0.00800,
,,,4.152000000000,   0.00400,
,,,4.156000000000,  -0.00200,
,,,4.160000000000,  -0.00800,
,,,4.164000000000,  -0.00400,
,,,4.168000000000,   0.00000,
,,,4.172000000000,   0.00600,
,,,4.176000000000,   0.00600,
,,,4.180000000000,  -0.00400,
,,,4.184000000000,  -0.00400,
,,,4.188000000000,   0.00400,
,,,4.192000000000,   0.00400,
,,,4.196000000000,  -0.00400,
,,,4.200000000000,  -0.00200,
,,,4.204000000000,  -0.00200,
,,,4.208000000000,   0.00000,
,,,4.212000000000,   0.00400,
,,,4.216000000000,   0.00200,
,,,4.220000000000,  -0.00400,
,,,4.224000000000,  -0.00200,
,,,4.228000000000,   0.00800,
,,,4.232000000000,   0.00800,
,,,4.236000000000,   0.00000,
,,,4.240000000000,  -0.01200,
,,,4.244000000000,  -0.00400,
,,,4.248000000000,   0.00800,
,,,4.252000000000,   0.01000,
,,,4.256000000000,  -0.00200,
,,,4.260000000000,  -0.00600,
,,,4.264000000000,  -0.00400,
,,,4.268000000000,   0.00200,
,,,4.272000000000,   0.00800,
,,,4.276000000000,   0.00400,
,,,4.280000000000,  -0.00800,
,,,4.284000000000,  -0.01000,
,,,4.288000000000,  -0.00400,
,,,4.292000000000,   0.00000,
,,,4.296000000000,  -0.00200,
,,,4.300000000000,  -0.00600,
,,,4.304000000000,   0.00200,
,,,4.308000000000,   0.00600,
,,,4.312000000000,   0.00600,
,,,4.316000000000,  -0.00200,
,,,4.320000000000,  -0.00600,
,,,4.324000000000,  -0.00400,
,,,4.328000000000,   0.00400,
,,,4.332000000000,   0.01000,
,,,4.336000000000,   0.00600,
,,,4.340000000000,  -0.01000,
,,,4.344000000000,  -0.01200,
,,,4.348000000000,  -0.00400,
,,,4.352000000000,   0.00600,
,,,4.356000000000,   0.01200,
,,,4.360000000000,   0.00800,
,,,4.364000000000,   0.00200,
,,,4.368000000000,   0.00600,
,,,4.372000000000,   0.01000,
,,,4.376000000000,   0.00200,
,,,4.380000000000,  -0.00400,
,,,4.384000000000,  -0.00200,
,,,4.388000000000,   0.01000,
,,,4.392000000000,   0.01400,
,,,4.396000000000,   0.00400,
,,,4.400000000000,  -0.00600,
,,,4.404000000000,  -0.00800,
,,,4.408000000000,   0.00400,
,,,4.412000000000,   0.01000,
,,,4.416000000000,   0.00400,
,,,4.420000000000,  -0.01000,
,,,4.424000000000,  -0.01000,
,,,4.428000000000,   0.00000,
,,,4.432000000000,   0.00800,
,,,4.436000000000,   0.00200,
,,,4.440000000000,   0.00000,
,,,4.444000000000,   0.00200,
,,,4.448000000000,   0.00600,
,,,4.452000000000,   0.00800,
,,,4.456000000000,   0.00200,
,,,4.460000000000,  -0.00400,
,,,4.464000000000,   0.00000,
,,,4.468000000000,   0.00800,
,,,4.472000000000,   0.00400,
,,,4.476000000000,  -0.00400,
,,,4.480000000000,  -0.01400,
,,,4.484000000000,  -0.01200,
,,,4.488000000000,   0.00200,
,,,4.492000000000,   0.01200,
,,,4.496000000000,   0.00400,
,,,4.500000000000,  -0.01000,
,,,4.504000000000,  -0.00400,
,,,4.508000000000,   0.00600,
,,,4.512000000000,   0.00600,
,,,4.516000000000,  -0.00200,
,,,4.520000000000,  -0.00600,
,,,4.524000000000,  -0.00800,
,,,4.528000000000,  -0.00200,
,,,4.532000000000,   0.00200,
,,,4.536000000000,   0.00000,
,,,4.540000000000,  -0.00400,
,,,4.544000000000,   0.00400,
,,,4.548000000000,   0.01000,
,,,4.552000000000,   0.00800,
,,,4.556000000000,  -0.00200,
,,,4.560000000000,  -0.00800,
,,,4.564000000000,  -0.00600,
,,,4.568000000000,   0.00200,
,,,4.572000000000,   0.00200,
,,,4.576000000000,  -0.00200,
,,,4.580000000000,  -0.00600,
,,,4.584000000000,   0.00000,
,,,4.588000000000,   0.00200,
,,,4.592000000000,   0.00000,
,,,4.596000000000,  -0.00200,
,,,4.600000000000,  -0.01000,
,,,4.604000000000,  -0.00800,
,,,4.608000000000,  -0.00200,
,,,4.612000000000,   0.01000,
,,,4.616000000000,   0.00600,
,,,4.620000000000,  -0.00400,
,,,4.624000000000,  -0.00400,
,,,4.628000000000,   0.00200,
,,,4.632000000000,   0.01000,
,,,4.636000000000,   0.01000,
,,,4.640000000000,  -0.00200,
,,,4.644000000000,  -0.01200,
,,,4.648000000000,  -0.01200,
,,,4.652000000000,  -0.00400,
,,,4.656000000000,  -0.00200,
,,,4.660000000000,   0.00000,
,,,4.664000000000,   0.00400,
,,,4.668000000000,   0.00800,
,,,4.672000000000,   0.00800,
,,,4.676000000000,   0.00200,
,,,4.680000000000,  -0.00600,
,,,4.684000000000,  -0.00200,
,,,4.688000000000,   0.01200,
,,,4.692000000000,   0.01400,
,,,4.696000000000,   0.00200,
,,,4.700000000000,  -0.01000,
,,,4.704000000000,  -0.00400,
,,,4.708000000000,   0.01200,
,,,4.712000000000,   0.01400,
,,,4.716000000000,   0.00200,
,,,4.720000000000,   0.00000,
,,,4.724000000000,   0.00200,
,,,4.728000000000,   0.00800,
,,,4.732000000000,   0.00800,
,,,4.736000000000,  -0.00400,
,,,4.740000000000,  -0.01200,
,,,4.744000000000,  -0.00600,
,,,4.748000000000,   0.00200,
,,,4.752000000000,   0.01000,
,,,4.756000000000,   0.01000,
,,,4.760000000000,   0.00200,
,,,4.764000000000,   0.00000,
,,,4.768000000000,   0.00200,
,,,4.772000000000,   0.00200,
,,,4.776000000000,   0.00200,
,,,4.780000000000,  -0.00200,
,,,4.784000000000,   0.01000,
,,,4.788000000000,   0.02200,
,,,4.792000000000,   0.01800,
,,,4.796000000000,   0.00000,
,,,4.800000000000,  -0.01000,
,,,4.804000000000,  -0.01400,
,,,4.808000000000,  -0.00600,
,,,4.812000000000,   0.00400,
,,,4.816000000000,   0.00800,
,,,4.820000000000,   0.00600,
,,,4.824000000000,   0.00200,
,,,4.828000000000,   0.00000,
,,,4.832000000000,   0.00200,
,,,4.836000000000,  -0.00200,
,,,4.840000000000,  -0.00400,
,,,4.844000000000,  -0.00200,
,,,4.848000000000,  -0.00200,
,,,4.852000000000,   0.00400,
,,,4.856000000000,   0.00400,
,,,4.860000000000,   0.00000,
,,,4.864000000000,  -0.00400,
,,,4.868000000000,   0.00400,
,,,4.872000000000,   0.01000,
,,,4.876000000000,   0.00600,
,,,4.880000000000,  -0.00400,
,,,4.884000000000,  -0.00400,
,,,4.888000000000,   0.00200,
,,,4.892000000000,   0.00800,
,,,4.896000000000,   0.01000,
,,,4.900000000000,   0.00200,
,,,4.904000000000,  -0.00400,
,,,4.908000000000,  -0.00400,
,,,4.912000000000,  -0.00400,
,,,4.916000000000,  -0.01000,
,,,4.920000000000,  -0.01000,
,,,4.924000000000,  -0.00800,
,,,4.928000000000,   0.00400,
,,,4.932000000000,   0.01000,
,,,4.936000000000,   0.00200,
,,,4.940000000000,  -0.01000,
,,,4.944000000000,  -0.00800,
,,,4.948000000000,   0.00200,
,,,4.952000000000,   0.01000,
,,,4.956000000000,   0.00400,
,,,4.960000000000,  -0.00400,
,,,4.964000000000,  -0.01000,
,,,4.968000000000,  -0.00200,
,,,4.972000000000,   0.00200,
,,,4.976000000000,  -0.00600,
,,,4.980000000000,  -0.00600,
,,,4.984000000000,  -0.00600,
,,,4.988000000000,  -0.00200,
,,,4.992000000000,   0.00000,
,,,4.996000000000,  -0.00200,
,,,5.000000000000,  -0.00200,
,,,5.004000000000,  -0.00200,
,,,5.008000000000,   0.00200,
,,,5.012000000000,   0.00600,
,,,5.016000000000,   0.00000,
,,,5.020000000000,  -0.00600,
,,,5.024000000000,  -0.00400,
,,,5.028000000000,   0.00200,
,,,5.032000000000,   0.00800,
,,,5.036000000000,   0.00400,
,,,5.040000000000,  -0.00600,
,,,5.044000000000,  -0.00400,
,,,5.048000000000,   0.00600,
,,,5.052000000000,   0.01200,
,,,5.056000000000,   0.00400,
,,,5.060000000000,  -0.00600,
,,,5.064000000000,  -0.00400,
,,,5.068000000000,   0.00600,
,,,5.072000000000,   0.00800,
,,,5.076000000000,   0.00200,
,,,5.080000000000,  -0.00400,
,,,5.084000000000,   0.00000,
,,,5.088000000000,   0.01000,
,,,5.092000000000,   0.01400,
,,,5.096000000000,   0.00200,
,,,5.100000000000,  -0.01000,
,,,5.104000000000,  -0.00600,
,,,5.108000000000,   0.00000,
,,,5.112000000000,   0.00200,
,,,5.116000000000,  -0.00400,
,,,5.120000000000,  -0.01000,
,,,5.124000000000,  -0.00800,
,,,5.128000000000,   0.00200,
,,,5.132000000000,   0.01000,
,,,5.136000000000,   0.00800,
,,,5.140000000000,   0.00600,
,,,5.144000000000,   0.00600,
,,,5.148000000000,   0.00200,
,,,5.152000000000,   0.00000,
,,,5.156000000000,  -0.00400,
,,,5.160000000000,  -0.00400,
,,,5.164000000000,  -0.00400,
,,,5.168000000000,   0.00400,
,,,5.172000000000,   0.01000,
,,,5.176000000000,   0.01000,
,,,5.180000000000,   0.00800,
,,,5.184000000000,   0.00800,
,,,5.188000000000,   0.00800,
,,,5.192000000000,   0.01200,
,,,5.196000000000,   0.00800,
,,,5.200000000000,   0.00000,
,,,5.204000000000,  -0.01000,
,,,5.208000000000,  -0.00600,
,,,5.212000000000,  -0.00200,
,,,5.216000000000,  -0.00200,
,,,5.220000000000,  -0.00400,
,,,5.224000000000,   0.00200,
,,,5.228000000000,   0.01400,
,,,5.232000000000,   0.01800,
,,,5.236000000000,   0.00800,
,,,5.240000000000,  -0.00200,
,,,5.244000000000,  -0.00400,
,,,5.248000000000,  -0.00200,
,,,5.252000000000,   0.00200,
,,,5.256000000000,   0.00000,
,,,5.260000000000,  -0.00200,
,,,5.264000000000,   0.00200,
,,,5.268000000000,   0.00800,
,,,5.272000000000,   0.01200,
,,,5.276000000000,   0.00200,
,,,5.280000000000,  -0.00800,
,,,5.284000000000,  -0.00400,
,,,5.288000000000,   0.00400,
,,,5.292000000000,   0.00800,
,,,5.296000000000,  -0.00200,
,,,5.300000000000,  -0.01000,
,,,5.304000000000,  -0.00400,
,,,5.308000000000,   0.00800,
,,,5.312000000000,   0.01400,
,,,5.316000000000,   0.00400,
,,,5.320000000000,  -0.00200,
,,,5.324000000000,   0.00200,
,,,5.328000000000,   0.01600,
,,,5.332000000000,   0.01600,
,,,5.336000000000,   0.00800,
,,,5.340000000000,   0.00200,
,,,5.344000000000,   0.02200,
,,,5.348000000000,   0.02000,
,,,5.352000000000,   0.02200,
,,,5.356000000000,   0.02600,
,,,5.360000000000,   0.02200,
,,,5.364000000000,   0.02200,
,,,5.368000000000,   0.03000,
,,,5.372000000000,   0.02800,
,,,5.376000000000,   0.03200,
,,,5.380000000000,   0.03600,
,,,5.384000000000,   0.03800,
,,,5.388000000000,   0.05800,
,,,5.392000000000,   0.06800,
,,,5.396000000000,   0.07200,
,,,5.400000000000,   0.07600,
,,,5.404000000000,   0.09200,
,,,5.408000000000,   0.10200,
,,,5.412000000000,   0.10000,
,,,5.416000000000,   0.09400,
,,,5.420000000000,   0.08800,
,,,5.424000000000,   0.08800,
,,,5.428000000000,   0.08800,
,,,5.432000000000,   0.08600,
,,,5.436000000000,   0.07200,
,,,5.440000000000,   0.06200,
,,,5.444000000000,   0.04800,
,,,5.448000000000,   0.04200,
,,,5.452000000000,   0.04000,
,,,5.456000000000,   0.03200,
,,,5.460000000000,   0.01600,
,,,5.464000000000,   0.00600,
,,,5.468000000000,   0.00200,
,,,5.472000000000,  -0.00600,
,,,5.476000000000,  -0.01400,
,,,5.480000000000,  -0.02400,
,,,5.484000000000,  -0.03200,
,,,5.488000000000,  -0.03400,
,,,5.492000000000,  -0.03200,
,,,5.496000000000,  -0.04400,
,,,5.500000000000,  -0.05400,
,,,5.504000000000,  -0.06000,
,,,5.508000000000,  -0.05200,
,,,5.512000000000,  -0.04800,
,,,5.516000000000,  -0.04800,
,,,5.520000000000,  -0.05000,
,,,5.524000000000,  -0.04800,
,,,5.528000000000,  -0.04800,
,,,5.532000000000,  -0.04400,
,,,5.536000000000,  -0.04000,
,,,5.540000000000,  -0.04600,
,,,5.544000000000,  -0.04800,
,,,5.548000000000,  -0.03800,
,,,5.552000000000,  -0.03600,
,,,5.556000000000,  -0.03600,
,,,5.560000000000,  -0.04000,
,,,5.564000000000,  -0.03800,
,,,5.568000000000,  -0.03000,
,,,5.572000000000,  -0.02400,
,,,5.576000000000,  -0.02800,
,,,5.580000000000,  -0.03200,
,,,5.584000000000,  -0.03400,
,,,5.588000000000,  -0.02800,
,,,5.592000000000,  -0.02400,
,,,5.596000000000,  -0.02600,
,,,5.600000000000,  -0.02600,
,,,5.604000000000,  -0.02400,
,,,5.608000000000,  -0.02000,
,,,5.612000000000,  -0.01800,
,,,5.616000000000,  -0.02000,
,,,5.620000000000,  -0.02200,
,,,5.624000000000,  -0.02000,
,,,5.628000000000,  -0.00600,
,,,5.632000000000,  -0.00800,
,,,5.636000000000,  -0.01200,
,,,5.640000000000,  -0.02200,
,,,5.644000000000,  -0.02400,
,,,5.648000000000,  -0.01000,
,,,5.652000000000,  -0.00200,
,,,5.656000000000,  -0.00800,
,,,5.660000000000,  -0.01000,
,,,5.664000000000,  -0.01200,
,,,5.668000000000,  -0.00800,
,,,5.672000000000,  -0.00600,
,,,5.676000000000,  -0.01400,
,,,5.680000000000,  -0.02000,
,,,5.684000000000,  -0.01600,
,,,5.688000000000,   0.00000,
,,,5.692000000000,   0.00000,
,,,5.696000000000,  -0.01200,
,,,5.700000000000,  -0.01400,
,,,5.704000000000,  -0.01200,
,,,5.708000000000,   0.00000,
,,,5.712000000000,   0.00800,
,,,5.716000000000,   0.01400,
,,,5.720000000000,  -0.00200,
,,,5.724000000000,  -0.00600,
,,,5.728000000000,  -0.00400,
,,,5.732000000000,   0.00000,
,,,5.736000000000,  -0.00400,
,,,5.740000000000,  -0.01200,
,,,5.744000000000,  -0.01000,
,,,5.748000000000,   0.00800,
,,,5.752000000000,   0.00800,
,,,5.756000000000,  -0.00400,
,,,5.760000000000,  -0.01200,
,,,5.764000000000,  -0.01000,
,,,5.768000000000,  -0.00600,
,,,5.772000000000,   0.00200,
,,,5.776000000000,   0.00200,
,,,5.780000000000,   0.00200,
,,,5.784000000000,   0.00200,
,,,5.788000000000,   0.00400,
,,,5.792000000000,   0.00200,
,,,5.796000000000,  -0.00600,
,,,5.800000000000,  -0.01000,
,,,5.804000000000,  -0.00800,
,,,5.808000000000,   0.00000,
,,,5.812000000000,   0.00800,
,,,5.816000000000,   0.00000,
,,,5.820000000000,  -0.00800,
,,,5.824000000000,  -0.00400,
,,,5.828000000000,   0.01000,
,,,5.832000000000,   0.00600,
,,,5.836000000000,  -0.00200,
,,,5.840000000000,  -0.01200,
,,,5.844000000000,  -0.00800,
,,,5.848000000000,   0.00600,
,,,5.852000000000,   0.01000,
,,,5.856000000000,   0.00200,
,,,5.860000000000,  -0.00400,
,,,5.864000000000,  -0.00400,
,,,5.868000000000,   0.00600,
,,,5.872000000000,   0.00000,
,,,5.876000000000,  -0.00800,
,,,5.880000000000,  -0.01000,
,,,5.884000000000,   0.00000,
,,,5.888000000000,   0.01000,
,,,5.892000000000,   0.01000,
,,,5.896000000000,  -0.00400,
,,,5.900000000000,  -0.01200,
,,,5.904000000000,  -0.01000,
,,,5.908000000000,  -0.00400,
,,,5.912000000000,   0.00200,
,,,5.916000000000,  -0.00200,
,,,5.920000000000,  -0.00600,
,,,5.924000000000,  -0.00600,
,,,5.928000000000,  -0.00200,
,,,5.932000000000,   0.00200,
,,,5.936000000000,  -0.00200,
,,,5.940000000000,  -0.00600,
,,,5.944000000000,  -0.00400,
,,,5.948000000000,   0.00600,
,,,5.952000000000,   0.00600,
,,,5.956000000000,   0.00200,
,,,5.960000000000,  -0.00400,
,,,5.964000000000,  -0.00400,
,,,5.968000000000,   0.00600,
,,,5.972000000000,   0.01000,
,,,5.976000000000,   0.00600,
,,,5.980000000000,  -0.00400,
,,,5.984000000000,  -0.01000,
,,,5.988000000000,  -0.00600,
,,,5.992000000000,   0.00200,
,,,5.996000000000,   0.00800,
,,,6.000000000000,   0.00400,
,,,6.004000000000,   0.01000,
,,,6.008000000000,   0.01000,
,,,6.012000000000,   0.00200,
,,,6.016000000000,  -0.00400,
,,,6.020000000000,  -0.01200,
,,,6.024000000000,  -0.00800,
,,,6.028000000000,   0.00200,
,,,6.032000000000,   0.01000,
,,,6.036000000000,   0.00200,
,,,6.040000000000,  -0.00600,
,,,6.044000000000,  -0.00400,
,,,6.048000000000,   0.00600,
,,,6.052000000000,   0.00800,
,,,6.056000000000,   0.00000,
,,,6.060000000000,  -0.00800,
,,,6.064000000000,  -0.00400,
,,,6.068000000000,   0.00600,
,,,6.072000000000,   0.01200,
,,,6.076000000000,   0.00600,
,,,6.080000000000,  -0.00400,
,,,6.084000000000,  -0.00600,
,,,6.088000000000,   0.00600,
,,,6.092000000000,   0.00600,
,,,6.096000000000,  -0.00200,
,,,6.100000000000,  -0.01000,
,,,6.104000000000,  -0.00200,
,,,6.108000000000,   0.01000,
,,,6.112000000000,   0.01200,
,,,6.116000000000,  -0.00200,
,,,6.120000000000,  -0.01200,
,,,6.124000000000,  -0.00800,
,,,6.128000000000,   0.00200,
,,,6.132000000000,   0.00600,
,,,6.136000000000,   0.00200,
,,,6.140000000000,  -0.00200,
,,,6.144000000000,  -0.01200,
,,,6.148000000000,  -0.00200,
,,,6.152000000000,   0.00600,
,,,6.156000000000,  -0.00200,
,,,6.160000000000,  -0.00800,
,,,6.164000000000,  -0.00400,
,,,6.168000000000,   0.00400,
,,,6.172000000000,   0.00400,
,,,6.176000000000,  -0.00400,
,,,6.180000000000,  -0.00600,
,,,6.184000000000,   0.00200,
,,,6.188000000000,   0.01200,
,,,6.192000000000,   0.01000,
,,,6.196000000000,   0.00600,
,,,6.200000000000,   0.00400,
,,,6.204000000000,   0.00000,
,,,6.208000000000,   0.00200,
,,,6.212000000000,   0.00200,
,,,6.216000000000,   0.00000,
,,,6.220000000000,  -0.00400,
,,,6.224000000000,   0.00000,
,,,6.228000000000,   0.00600,
,,,6.232000000000,   0.00400,
,,,6.236000000000,  -0.00400,
,,,6.240000000000,  -0.01200,
,,,6.244000000000,  -0.00400,
,,,6.248000000000,   0.00000,
,,,6.252000000000,   0.00200,
,,,6.256000000000,   0.00200,
,,,6.260000000000,   0.00400,
,,,6.264000000000,   0.00400,
,,,6.268000000000,   0.00400,
,,,6.272000000000,   0.00200,
,,,6.276000000000,  -0.00600,
,,,6.280000000000,  -0.01200,
,,,6.284000000000,  -0.00800,
,,,6.288000000000,   0.00200,
,,,6.292000000000,   0.01000,
,,,6.296000000000,   0.00600,
,,,6.300000000000,  -0.00200,
,,,6.304000000000,  -0.00400,
,,,6.308000000000,   0.00000,
,,,6.312000000000,   0.00600,
,,,6.316000000000,  -0.00400,
,,,6.320000000000,  -0.00400,
,,,6.324000000000,   0.00000,
,,,6.328000000000,   0.01200,
,,,6.332000000000,   0.01600,
,,,6.336000000000,   0.00600,
,,,6.340000000000,  -0.00600,
,,,6.344000000000,  -0.00400,
,,,6.348000000000,   0.00400,
,,,6.352000000000,   0.00800,
,,,6.356000000000,   0.00000,
,,,6.360000000000,  -0.00400,
,,,6.364000000000,  -0.00400,
,,,6.368000000000,   0.00200,
,,,6.372000000000,   0.00600,
,,,6.376000000000,   0.00000,
,,,6.380000000000,  -0.00400,
,,,6.384000000000,   0.00000,
,,,6.388000000000,   0.00400,
,,,6.392000000000,   0.00200,
,,,6.396000000000,  -0.00200,
,,,6.400000000000,  -0.00400,
,,,6.404000000000,  -0.00200,
,,,6.408000000000,   0.00000,
,,,6.412000000000,   0.00200,
,,,6.416000000000,  -0.00400,
,,,6.420000000000,  -0.01200,
,,,6.424000000000,  -0.00600,
,,,6.428000000000,   0.00600,
,,,6.432000000000,   0.01800,
,,,6.436000000000,   0.01000,
,,,6.440000000000,   0.00200,
,,,6.444000000000,  -0.00200,
,,,6.448000000000,   0.00400,
,,,6.452000000000,   0.00200,
,,,6.456000000000,  -0.00200,
,,,6.460000000000,  -0.00600,
,,,6.464000000000,  -0.00600,
,,,6.468000000000,   0.00000,
,,,6.472000000000,   0.00400,
,,,6.476000000000,   0.00400,
,,,6.480000000000,   0.00200,
,,,6.484000000000,   0.00200,
,,,6.488000000000,   0.00800,
,,,6.492000000000,   0.00800,
,,,6.496000000000,   0.00200,
,,,6.500000000000,  -0.00400,
,,,6.504000000000,  -0.01000,
,,,6.508000000000,   0.00200,
,,,6.512000000000,   0.00600,
,,,6.516000000000,   0.00000,
,,,6.520000000000,  -0.00800,
,,,6.524000000000,  -0.00600,
,,,6.528000000000,   0.00400,
,,,6.532000000000,   0.00600,
,,,6.536000000000,   0.00200,
,,,6.540000000000,  -0.00200,
,,,6.544000000000,   0.00200,
,,,6.548000000000,   0.00600,
,,,6.552000000000,   0.00600,
,,,6.556000000000,   0.00200,
,,,6.560000000000,   0.00400,
,,,6.564000000000,   0.00800,
,,,6.568000000000,   0.01800,
,,,6.572000000000,   0.02000,
,,,6.576000000000,   0.01000,
,,,6.580000000000,  -0.01200,
,,,6.584000000000,  -0.01200,
,,,6.588000000000,   0.00000,
,,,6.592000000000,   0.00600,
,,,6.596000000000,   0.00200,
,,,6.600000000000,  -0.00600,
,,,6.604000000000,  -0.00400,
,,,6.608000000000,   0.00400,
,,,6.612000000000,   0.00800,
,,,6.616000000000,   0.00000,
,,,6.620000000000,  -0.01000,
,,,6.624000000000,  -0.01000,
,,,6.628000000000,  -0.00200,
,,,6.632000000000,   0.00400,
,,,6.636000000000,   0.00000,
,,,6.640000000000,  -0.00200,
,,,6.644000000000,   0.00200,
,,,6.648000000000,   0.00200,
,,,6.652000000000,   0.01000,
,,,6.656000000000,   0.00200,
,,,6.660000000000,  -0.00400,
,,,6.664000000000,   0.00000,
,,,6.668000000000,   0.00800,
,,,6.672000000000,   0.01200,
,,,6.676000000000,   0.00000,
,,,6.680000000000,  -0.00200,
,,,6.684000000000,   0.00400,
,,,6.688000000000,   0.01000,
,,,6.692000000000,   0.00200,
,,,6.696000000000,  -0.01000,
,,,6.700000000000,  -0.02200,
,,,6.704000000000,  -0.01200,
,,,6.708000000000,   0.00800,
,,,6.712000000000,   0.01800,
,,,6.716000000000,   0.00800,
,,,6.720000000000,  -0.00800,
,,,6.724000000000,  -0.00800,
,,,6.728000000000,   0.00000,
,,,6.732000000000,   0.00400,
,,,6.736000000000,   0.00000,
,,,6.740000000000,   0.00400,
,,,6.744000000000,   0.00400,
,,,6.748000000000,   0.00800,
,,,6.752000000000,   0.00800,
,,,6.756000000000,   0.00200,
,,,6.760000000000,   0.00200,
,,,6.764000000000,   0.01000,
,,,6.768000000000,   0.01400,
,,,6.772000000000,   0.01400,
,,,6.776000000000,   0.01000,
,,,6.780000000000,   0.01200,
,,,6.784000000000,   0.01800,
,,,6.788000000000,   0.02800,
,,,6.792000000000,   0.03400,
,,,6.796000000000,   0.03000,
,,,6.800000000000,   0.03800,
,,,6.804000000000,   0.04400,
,,,6.808000000000,   0.05400,
,,,6.812000000000,   0.05600,
,,,6.816000000000,   0.06000,
,,,6.820000000000,   0.07000,
,,,6.824000000000,   0.09200,
,,,6.828000000000,   0.11200,
,,,6.832000000000,   0.11600,
,,,6.836000000000,   0.10600,
,,,6.840000000000,   0.09600,
,,,6.844000000000,   0.09200,
,,,6.848000000000,   0.09400,
,,,6.852000000000,   0.09000,
,,,6.856000000000,   0.08000,
,,,6.860000000000,   0.07400,
,,,6.864000000000,   0.06800,
,,,6.868000000000,   0.06400,
,,,6.872000000000,   0.05800,
,,,6.876000000000,   0.03800,
,,,6.880000000000,   0.01800,
,,,6.884000000000,   0.00800,
,,,6.888000000000,   0.01000,
,,,6.892000000000,   0.00200,
,,,6.896000000000,  -0.01400,
,,,6.900000000000,  -0.02400,
,,,6.904000000000,  -0.02800,
,,,6.908000000000,  -0.02400,
,,,6.912000000000,  -0.02600,
,,,6.916000000000,  -0.03800,
,,,6.920000000000,  -0.05000,
,,,6.924000000000,  -0.05600,
,,,6.928000000000,  -0.05400,
,,,6.932000000000,  -0.04800,
,,,6.936000000000,  -0.05400,
,,,6.940000000000,  -0.06200,
,,,6.944000000000,  -0.05800,
,,,6.948000000000,  -0.04800,
,,,6.952000000000,  -0.04400,
,,,6.956000000000,  -0.04400,
,,,6.960000000000,  -0.05200,
,,,6.964000000000,  -0.05200,
,,,6.968000000000,  -0.04000,
,,,6.972000000000,  -0.03200,
,,,6.976000000000,  -0.03800,
,,,6.980000000000,  -0.03800,
,,,6.984000000000,  -0.03800,
,,,6.988000000000,  -0.03200,
,,,6.992000000000,  -0.02400,
,,,6.996000000000,  -0.03200,
,,,7.000000000000,  -0.03400,
,,,7.004000000000,  -0.03400,
,,,7.008000000000,  -0.03000,
,,,7.012000000000,  -0.02800,
,,,7.016000000000,  -0.02800,
,,,7.020000000000,  -0.03000,
,,,7.024000000000,  -0.03000,
,,,7.028000000000,  -0.02200,
,,,7.032000000000,  -0.01600,
,,,7.036000000000,  -0.01400,
,,,7.040000000000,  -0.01400,
,,,7.044000000000,  -0.01000,
,,,7.048000000000,  -0.01000,
,,,7.052000000000,  -0.01800,
,,,7.056000000000,  -0.02400,
,,,7.060000000000,  -0.01800,
,,,7.064000000000,  -0.00800,
,,,7.068000000000,  -0.00200,
,,,7.072000000000,  -0.00200,
,,,7.076000000000,  -0.01400,
,,,7.080000000000,  -0.01400,
,,,7.084000000000,  -0.00800,
,,,7.088000000000,   0.00000,
,,,7.092000000000,   0.00200,
,,,7.096000000000,  -0.00600,
,,,7.100000000000,  -0.00800,
,,,7.104000000000,  -0.01000,
,,,7.108000000000,  -0.00600,
,,,7.112000000000,  -0.01000,
,,,7.116000000000,  -0.01200,
,,,7.120000000000,  -0.00800,
,,,7.124000000000,  -0.00200,
,,,7.128000000000,   0.01000,
,,,7.132000000000,   0.00400,
,,,7.136000000000,  -0.00400,
,,,7.140000000000,  -0.01000,
,,,7.144000000000,  -0.00600,
,,,7.148000000000,   0.00000,
,,,7.152000000000,   0.00600,
,,,7.156000000000,   0.00000,
,,,7.160000000000,  -0.00600,
,,,7.164000000000,  -0.00400,
,,,7.168000000000,   0.00000,
,,,7.172000000000,   0.00000,
,,,7.176000000000,  -0.00400,
,,,7.180000000000,  -0.00800,
,,,7.184000000000,  -0.00600,
,,,7.188000000000,   0.00000,
,,,7.192000000000,  -0.00200,
,,,7.196000000000,  -0.00600,
,,,7.200000000000,  -0.00800,
,,,7.204000000000,  -0.00800,
,,,7.208000000000,   0.00400,
,,,7.212000000000,   0.00200,
,,,7.216000000000,   0.00200,
,,,7.220000000000,   0.00000,
,,,7.224000000000,   0.00000,
,,,7.228000000000,   0.00800,
,,,7.232000000000,   0.01000,
,,,7.236000000000,   0.00200,
,,,7.240000000000,  -0.00400,
,,,7.244000000000,  -0.00400,
,,,7.248000000000,   0.00000,
,,,7.252000000000,   0.00400,
,,,7.256000000000,   0.00000,
,,,7.260000000000,  -0.00400,
,,,7.264000000000,   0.00400,
,,,7.268000000000,   0.00800,
,,,7.272000000000,   0.00400,
,,,7.276000000000,   0.00000,
,,,7.280000000000,  -0.00600,
,,,7.284000000000,   0.00000,
,,,7.288000000000,   0.00200,
,,,7.292000000000,   0.00800,
,,,7.296000000000,   0.00200,
,,,7.300000000000,  -0.01200,
,,,7.304000000000,  -0.00800,
,,,7.308000000000,  -0.00200,
,,,7.312000000000,   0.00600,
,,,7.316000000000,   0.00200,
,,,7.320000000000,   0.00000,
,,,7.324000000000,   0.00200,
,,,7.328000000000,   0.00600,
,,,7.332000000000,   0.00400,
,,,7.336000000000,  -0.00400,
,,,7.340000000000,  -0.01000,
,,,7.344000000000,  -0.00200,
,,,7.348000000000,   0.01000,
,,,7.352000000000,   0.00800,
,,,7.356000000000,  -0.00400,
,,,7.360000000000,  -0.00800,
,,,7.364000000000,  -0.00400,
,,,7.368000000000,   0.00000,
,,,7.372000000000,   0.00200,
,,,7.376000000000,  -0.00400,
,,,7.380000000000,  -0.00600,
,,,7.384000000000,  -0.00400,
,,,7.388000000000,  -0.00400,
,,,7.392000000000,  -0.00600,
,,,7.396000000000,  -0.00600,
,,,7.400000000000,  -0.01000,
,,,7.404000000000,  -0.00400,
,,,7.408000000000,   0.00600,
,,,7.412000000000,   0.00800,
,,,7.416000000000,   0.00600,
,,,7.420000000000,   0.00200,
,,,7.424000000000,  -0.00200,
,,,7.428000000000,   0.00000,
,,,7.432000000000,   0.00200,
,,,7.436000000000,  -0.00200,
,,,7.440000000000,  -0.00400,
,,,7.444000000000,   0.00400,
,,,7.448000000000,   0.01200,
,,,7.452000000000,   0.01200,
,,,7.456000000000,   0.00600,
,,,7.460000000000,   0.00000,
,,,7.464000000000,  -0.00600,
,,,7.468000000000,  -0.00200,
,,,7.472000000000,  -0.00200,
,,,7.476000000000,  -0.01000,
,,,7.480000000000,  -0.01200,
,,,7.484000000000,  -0.00200,
,,,7.488000000000,   0.00800,
,,,7.492000000000,   0.00800,
,,,7.496000000000,   0.00200,
,,,7.500000000000,  -0.00200,
,,,7.504000000000,   0.00000,
,,,7.508000000000,   0.00200,
,,,7.512000000000,  -0.00200,
,,,7.516000000000,  -0.00600,
,,,7.520000000000,  -0.01000,
,,,7.524000000000,  -0.00400,
,,,7.528000000000,   0.00800,
,,,7.532000000000,   0.00800,
,,,7.536000000000,   0.00400,
,,,7.540000000000,  -0.00200,
,,,7.544000000000,   0.00400,
,,,7.548000000000,   0.00400,
,,,7.552000000000,   0.00000,
,,,7.556000000000,  -0.00400,
,,,7.560000000000,  -0.00600,
,,,7.564000000000,  -0.01000,
,,,7.568000000000,  -0.00200,
,,,7.572000000000,   0.00800,
,,,7.576000000000,   0.00400,
,,,7.580000000000,  -0.00800,
,,,7.584000000000,  -0.00600,
,,,7.588000000000,   0.00200,
,,,7.592000000000,   0.00400,
,,,7.596000000000,  -0.00400,
,,,7.600000000000,  -0.00400,
,,,7.604000000000,   0.01000,
,,,7.608000000000,   0.01200,
,,,7.612000000000,   0.00800,
,,,7.616000000000,  -0.00600,
,,,7.620000000000,  -0.01400,
,,,7.624000000000,  -0.00800,
,,,7.628000000000,   0.00000,
,,,7.632000000000,   0.00200,
,,,7.636000000000,  -0.00200,
,,,7.640000000000,  -0.00600,
,,,7.644000000000,  -0.00200,
,,,7.648000000000,   0.00200,
,,,7.652000000000,   0.00200,
,,,7.656000000000,   0.00200,
,,,7.660000000000,  -0.00400,
,,,7.664000000000,   0.00200,
,,,7.668000000000,   0.00800,
,,,7.672000000000,   0.01600,
,,,7.676000000000,   0.00400,
,,,7.680000000000,   0.00000,
,,,7.684000000000,   0.00000,
,,,7.688000000000,  -0.00200,
,,,7.692000000000,  -0.00400,
,,,7.696000000000,  -0.01200,
,,,7.700000000000,  -0.01200,
,,,7.704000000000,   0.00000,
,,,7.708000000000,   0.01000,
,,,7.712000000000,   0.01000,
,,,7.716000000000,   0.00600,
,,,7.720000000000,  -0.00400,
,,,7.724000000000,  -0.00600,
,,,7.728000000000,  -0.00200,
,,,7.732000000000,   0.00800,
,,,7.736000000000,   0.00400,
,,,7.740000000000,   0.00200,
,,,7.744000000000,   0.00000,
,,,7.748000000000,   0.00200,
,,,7.752000000000,   0.00000,
,,,7.756000000000,  -0.00800,
,,,7.760000000000,  -0.00600,
,,,7.764000000000,  -0.00200,
,,,7.768000000000,   0.00800,
,,,7.772000000000,   0.00400,
,,,7.776000000000,  -0.00600,
,,,7.780000000000,  -0.00600,
,,,7.784000000000,   0.00400,
,,,7.788000000000,   0.01000,
,,,7.792000000000,   0.00600,
,,,7.796000000000,  -0.00400,
,,,7.800000000000,  -0.00200,
,,,7.804000000000,   0.00200,
,,,7.808000000000,   0.00400,
,,,7.812000000000,   0.00200,
,,,7.816000000000,  -0.00400,
,,,7.820000000000,  -0.00800,
,,,7.824000000000,  -0.00600,
,,,7.828000000000,   0.00400,
,,,7.832000000000,   0.00800,
,,,7.836000000000,   0.00400,
,,,7.840000000000,   0.00200,
,,,7.844000000000,   0.00400,
,,,7.848000000000,  -0.00200,
,,,7.852000000000,  -0.00400,
,,,7.856000000000,  -0.00800,
,,,7.860000000000,   0.00000,
,,,7.864000000000,   0.00600,
,,,7.868000000000,   0.01400,
,,,7.872000000000,   0.01200,
,,,7.876000000000,   0.00200,
,,,7.880000000000,  -0.00800,
,,,7.884000000000,  -0.00600,
,,,7.888000000000,   0.00400,
,,,7.892000000000,   0.00600,
,,,7.896000000000,   0.00000,
,,,7.900000000000,  -0.00200,
,,,7.904000000000,   0.00200,
,,,7.908000000000,   0.01000,
,,,7.912000000000,   0.01200,
,,,7.916000000000,  -0.00400,
,,,7.920000000000,  -0.00800,
,,,7.924000000000,  -0.00400,
,,,7.928000000000,   0.00600,
,,,7.932000000000,   0.00800,
,,,7.936000000000,   0.00000,
,,,7.940000000000,  -0.00600,
,,,7.944000000000,  -0.00400,
,,,7.948000000000,   0.00000,
,,,7.952000000000,  -0.00600,
,,,7.956000000000,   0.00200,
,,,7.960000000000,   0.00400,
,,,7.964000000000,   0.00800,
,,,7.968000000000,   0.00600,
,,,7.972000000000,   0.00400,
,,,7.976000000000,  -0.00400,
,,,7.980000000000,  -0.00400,
,,,7.984000000000,   0.00600,
,,,7.988000000000,   0.01400,
,,,7.992000000000,   0.01200,
,,,7.996000000000,  -0.00200,
,,,8.000000000000,  -0.01200,
,,,8.004000000000,  -0.00400,
,,,8.008000000000,   0.00400,
,,,8.012000000000,   0.00800,
,,,8.016000000000,   0.00600,
,,,8.020000000000,   0.00200,
,,,8.024000000000,   0.00200,
,,,8.028000000000,   0.01000,
,,,8.032000000000,   0.01400,
,,,8.036000000000,   0.00400,
,,,8.040000000000,  -0.00200,
,,,8.044000000000,   0.00400,
,,,8.048000000000,   0.00800,
,,,8.052000000000,   0.01000,
,,,8.056000000000,   0.00200,
,,,8.060000000000,  -0.00200,
,,,8.064000000000,   0.00400,
,,,8.068000000000,   0.01600,
,,,8.072000000000,   0.02000,
,,,8.076000000000,   0.02200,
,,,8.080000000000,   0.02400,
,,,8.084000000000,   0.03000,
,,,8.088000000000,   0.03800,
,,,8.092000000000,   0.03800,
,,,8.096000000000,   0.03400,
,,,8.100000000000,   0.04000,
,,,8.104000000000,   0.05000,
,,,8.108000000000,   0.05600,
,,,8.112000000000,   0.07000,
,,,8.116000000000,   0.08200,
,,,8.120000000000,   0.08400,
,,,8.124000000000,   0.09000,
,,,8.128000000000,   0.09800,
,,,8.132000000000,   0.10000,
,,,8.136000000000,   0.09600,
,,,8.140000000000,   0.09400,
,,,8.144000000000,   0.09600,
,,,8.148000000000,   0.09800,
,,,8.152000000000,   0.09200,
,,,8.156000000000,   0.07600,
,,,8.160000000000,   0.06400,
,,,8.164000000000,   0.06000,
,,,8.168000000000,   0.06600,
,,,8.172000000000,   0.05800,
,,,8.176000000000,   0.04000,
,,,8.180000000000,   0.02600,
,,,8.184000000000,   0.02200,
,,,8.188000000000,   0.02200,
,,,8.192000000000,   0.01000,
,,,8.196000000000,  -0.00400,
,,,8.200000000000,  -0.01200,
,,,8.204000000000,  -0.01400,
,,,8.208000000000,  -0.02400,
,,,8.212000000000,  -0.03200,
,,,8.216000000000,  -0.04200,
,,,8.220000000000,  -0.04400,
,,,8.224000000000,  -0.04400,
,,,8.228000000000,  -0.03800,
,,,8.232000000000,  -0.03800,
,,,8.236000000000,  -0.04200,
,,,8.240000000000,  -0.05200,
,,,8.244000000000,  -0.05400,
,,,8.248000000000,  -0.04400,
,,,8.252000000000,  -0.04200,
,,,8.256000000000,  -0.04600,
,,,8.260000000000,  -0.05600,
,,,8.264000000000,  -0.05400,
,,,8.268000000000,  -0.04800,
,,,8.272000000000,  -0.04200,
,,,8.276000000000,  -0.04200,
,,,8.280000000000,  -0.04800,
,,,8.284000000000,  -0.04200,
,,,8.288000000000,  -0.03200,
,,,8.292000000000,  -0.03400,
,,,8.296000000000,  -0.04200,
,,,8.300000000000,  -0.04800,
,,,8.304000000000,  -0.03800,
,,,8.308000000000,  -0.02800,
,,,8.312000000000,  -0.03000,
,,,8.316000000000,  -0.03600,
,,,8.320000000000,  -0.03600,
,,,8.324000000000,  -0.03000,
,,,8.328000000000,  -0.02000,
,,,8.332000000000,  -0.02400,
,,,8.336000000000,  -0.03200,
,,,8.340000000000,  -0.03400,
,,,8.344000000000,  -0.03200,
,,,8.348000000000,  -0.02400,
,,,8.352000000000,  -0.01600,
,,,8.356000000000,  -0.01800,
,,,8.360000000000,  -0.02200,
,,,8.364000000000,  -0.01600,
,,,8.368000000000,  -0.01400,
,,,8.372000000000,  -0.01200,
,,,8.376000000000,  -0.01600,
,,,8.380000000000,  -0.02200,
,,,8.384000000000,  -0.01400,
,,,8.388000000000,  -0.01000,
,,,8.392000000000,  -0.00600,
,,,8.396000000000,  -0.00800,
,,,8.400000000000,  -0.01200,
,,,8.404000000000,  -0.00800,
,,,8.408000000000,   0.00000,
,,,8.412000000000,  -0.00200,
,,,8.416000000000,  -0.01000,
,,,8.420000000000,  -0.01600,
,,,8.424000000000,  -0.00600,
,,,8.428000000000,   0.00000,
,,,8.432000000000,   0.00200,
,,,8.436000000000,  -0.00400,
,,,8.440000000000,  -0.00400,
,,,8.444000000000,   0.00600,
,,,8.448000000000,   0.00800,
,,,8.452000000000,   0.00200,
,,,8.456000000000,  -0.01000,
,,,8.460000000000,  -0.01400,
,,,8.464000000000,  -0.00400,
,,,8.468000000000,   0.00600,
,,,8.472000000000,  -0.00200,
,,,8.476000000000,  -0.00600,
,,,8.480000000000,  -0.00600,
,,,8.484000000000,   0.00200,
,,,8.488000000000,   0.00200,
,,,8.492000000000,   0.00400,
,,,8.496000000000,  -0.00400,
,,,8.500000000000,  -0.01000,
,,,8.504000000000,  -0.00400,
,,,8.508000000000,   0.00800,
,,,8.512000000000,   0.01800,
,,,8.516000000000,   0.00200,
,,,8.520000000000,  -0.00600,
,,,8.524000000000,  -0.00200,
,,,8.528000000000,   0.00800,
,,,8.532000000000,   0.00200,
,,,8.536000000000,  -0.01000,
,,,8.540000000000,  -0.01200,
,,,8.544000000000,   0.00200,
,,,8.548000000000,   0.01400,
,,,8.552000000000,   0.01000,
,,,8.556000000000,   0.00200,
,,,8.560000000000,  -0.00400,
,,,8.564000000000,   0.00200,
,,,8.568000000000,   0.01000,
,,,8.572000000000,   0.00400,
,,,8.576000000000,  -0.00800,
,,,8.580000000000,  -0.01000,
,,,8.584000000000,  -0.00600,
,,,8.588000000000,   0.00800,
,,,8.592000000000,   0.01200,
,,,8.596000000000,   0.00600,
,,,8.600000000000,  -0.00600,
,,,8.604000000000,  -0.00800,
,,,8.608000000000,  -0.00600,
,,,8.612000000000,  -0.00200,
,,,8.616000000000,  -0.00600,
,,,8.620000000000,  -0.00600,
,,,8.624000000000,   0.00400,
,,,8.628000000000,   0.01600,
,,,8.632000000000,   0.01800,
,,,8.636000000000,   0.00000,
,,,8.640000000000,  -0.01800,
,,,8.644000000000,  -0.01600,
,,,8.648000000000,   0.00200,
,,,8.652000000000,   0.00800,
,,,8.656000000000,   0.00400,
,,,8.660000000000,  -0.00800,
,,,8.664000000000,  -0.00200,
,,,8.668000000000,   0.00200,
,,,8.672000000000,   0.00200,
,,,8.676000000000,  -0.00200,
,,,8.680000000000,  -0.00600,
,,,8.684000000000,  -0.00200,
,,,8.688000000000,   0.00200,
,,,8.692000000000,   0.00000,
,,,8.696000000000,  -0.00400,
,,,8.700000000000,  -0.00400,
,,,8.704000000000,  -0.00200,
,,,8.708000000000,   0.00200,
,,,8.712000000000,  -0.00200,
,,,8.716000000000,  -0.00800,
,,,8.720000000000,  -0.00600,
,,,8.724000000000,   0.00000,
,,,8.728000000000,   0.00400,
,,,8.732000000000,   0.00800,
,,,8.736000000000,   0.00200,
,,,8.740000000000,  -0.00200,
,,,8.744000000000,   0.00000,
,,,8.748000000000,   0.00600,
,,,8.752000000000,   0.00400,
,,,8.756000000000,  -0.00600,
,,,8.760000000000,  -0.01200,
,,,8.764000000000,  -0.01000,
,,,8.768000000000,  -0.00200,
,,,8.772000000000,   0.00000,
,,,8.776000000000,   0.00400,
,,,8.780000000000,  -0.00200,
,,,8.784000000000,  -0.00200,
,,,8.788000000000,   0.00000,
,,,8.792000000000,  -0.00200,
,,,8.796000000000,  -0.00800,
,,,8.800000000000,  -0.01400,
,,,8.804000000000,  -0.00400,
,,,8.808000000000,   0.00800,
,,,8.812000000000,   0.01200,
,,,8.816000000000,   0.00400,
,,,8.820000000000,  -0.00800,
,,,8.824000000000,  -0.00400,
,,,8.828000000000,   0.00200,
,,,8.832000000000,  -0.00400,
,,,8.836000000000,  -0.01000,
,,,8.840000000000,  -0.01000,
,,,8.844000000000,   0.00200,
,,,8.848000000000,   0.01200,
,,,8.852000000000,   0.00800,
,,,8.856000000000,  -0.00200,
,,,8.860000000000,  -0.00600,
,,,8.864000000000,  -0.00400,
,,,8.868000000000,   0.00800,
,,,8.872000000000,   0.00800,
,,,8.876000000000,  -0.00400,
,,,8.880000000000,  -0.01200,
,,,8.884000000000,  -0.01000,
,,,8.888000000000,  -0.00400,
,,,8.892000000000,  -0.00200,
,,,8.896000000000,   0.00200,
,,,8.900000000000,   0.00800,
,,,8.904000000000,   0.02200,
,,,8.908000000000,   0.02000,
,,,8.912000000000,   0.00200,
,,,8.916000000000,  -0.01600,
,,,8.920000000000,  -0.02200,
,,,8.924000000000,  -0.01400,
,,,8.928000000000,   0.00000,
,,,8.932000000000,   0.00200,
,,,8.936000000000,  -0.00400,
,,,8.940000000000,   0.00600,
,,,8.944000000000,   0.01800,
,,,8.948000000000,   0.02200,
,,,8.952000000000,   0.00000,
,,,8.956000000000,  -0.01200,
,,,8.960000000000,  -0.01000,
,,,8.964000000000,  -0.00400,
,,,8.968000000000,  -0.00400,
,,,8.972000000000,  -0.00600,
,,,8.976000000000,  -0.00800,
,,,8.980000000000,  -0.00800,
,,,8.984000000000,   0.00600,
,,,8.988000000000,   0.01400,
,,,8.992000000000,   0.00800,
,,,8.996000000000,  -0.00200,
,,,9.000000000000,  -0.01000,
,,,9.004000000000,  -0.00600,
,,,9.008000000000,   0.00600,
,,,9.012000000000,   0.01000,
,,,9.016000000000,   0.00800,
,,,9.020000000000,   0.00400,
,,,9.024000000000,   0.00800,
,,,9.028000000000,   0.00800,
,,,9.032000000000,  -0.00200,
,,,9.036000000000,  -0.01000,
,,,9.040000000000,  -0.00800,
,,,9.044000000000,   0.00000,
,,,9.048000000000,   0.00400,
,,,9.052000000000,   0.00000,
,,,9.056000000000,  -0.00800,
,,,9.060000000000,  -0.00400,
,,,9.064000000000,   0.00600,
,,,9.068000000000,   0.00600,
,,,9.072000000000,  -0.00400,
,,,9.076000000000,  -0.01400,
,,,9.080000000000,  -0.01600,
,,,9.084000000000,  -0.00400,
,,,9.088000000000,   0.00600,
,,,9.092000000000,   0.00600,
,,,9.096000000000,   0.00200,
,,,9.100000000000,   0.00200,
,,,9.104000000000,   0.00800,
,,,9.108000000000,   0.00800,
,,,9.112000000000,   0.00400,
,,,9.116000000000,  -0.01000,
,,,9.120000000000,  -0.01600,
,,,9.124000000000,  -0.00600,
,,,9.128000000000,   0.00600,
,,,9.132000000000,   0.00400,
,,,9.136000000000,   0.00000,
,,,9.140000000000,   0.00000,
,,,9.144000000000,   0.01000,
,,,9.148000000000,   0.01000,
,,,9.152000000000,   0.00600,
,,,9.156000000000,  -0.00400,
,,,9.160000000000,  -0.00400,
,,,9.164000000000,   0.00200,
,,,9.168000000000,   0.00800,
,,,9.172000000000,   0.00600,
,,,9.176000000000,   0.00000,
,,,9.180000000000,  -0.00200,
,,,9.184000000000,   0.00400,
,,,9.188000000000,   0.01000,
,,,9.192000000000,   0.00400,
,,,9.196000000000,  -0.00600,
,,,9.200000000000,  -0.00600,
,,,9.204000000000,   0.00200,
,,,9.208000000000,   0.01000,
,,,9.212000000000,   0.00800,
,,,9.216000000000,   0.00000,
,,,9.220000000000,   0.00000,
,,,9.224000000000,   0.00200,
,,,9.228000000000,   0.00600,
,,,9.232000000000,   0.00200,
,,,9.236000000000,  -0.00400,
,,,9.240000000000,  -0.00400,
,,,9.244000000000,  -0.00200,
,,,9.248000000000,   0.00800,
,,,9.252000000000,   0.00600,
,,,9.256000000000,  -0.00200,
,,,9.260000000000,  -0.00400,
,,,9.264000000000,   0.00000,
,,,9.268000000000,   0.00200,
,,,9.272000000000,   0.00400,
,,,9.276000000000,  -0.00400,
,,,9.280000000000,  -0.00400,
,,,9.284000000000,   0.00200,
,,,9.288000000000,   0.00800,
,,,9.292000000000,   0.00800,
,,,9.296000000000,   0.00200,
,,,9.300000000000,  -0.00200,
,,,9.304000000000,   0.00200,
,,,9.308000000000,   0.00800,
,,,9.312000000000,   0.00600,
,,,9.316000000000,   0.00000,
,,,9.320000000000,  -0.00200,
,,,9.324000000000,   0.00600,
,,,9.328000000000,   0.01400,
,,,9.332000000000,   0.01000,
,,,9.336000000000,   0.00200,
,,,9.340000000000,  -0.00200,
,,,9.344000000000,   0.01000,
,,,9.348000000000,   0.02200,
,,,9.352000000000,   0.02000,
,,,9.356000000000,   0.01600,
,,,9.360000000000,   0.01800,
,,,9.364000000000,   0.02800,
,,,9.368000000000,   0.04200,
,,,9.372000000000,   0.03400,
,,,9.376000000000,   0.03000,
,,,9.380000000000,   0.02800,
,,,9.384000000000,   0.04200,
,,,9.388000000000,   0.06200,
,,,9.392000000000,   0.07000,
,,,9.396000000000,   0.07600,
,,,9.400000000000,   0.08200,
,,,9.404000000000,   0.09600,
,,,9.408000000000,   0.11200,
,,,9.412000000000,   0.11400,
,,,9.416000000000,   0.10400,
,,,9.420000000000,   0.10200,
,,,9.424000000000,   0.09800,
,,,9.428000000000,   0.09600,
,,,9.432000000000,   0.08800,
,,,9.436000000000,   0.07400,
,,,9.440000000000,   0.05600,
,,,9.444000000000,   0.04600,
,,,9.448000000000,   0.03800,
,,,9.452000000000,  -0.25200,
,,,9.456000000000,  -0.25200,
,,,9.460000000000,  -0.25200,
,,,9.464000000000,  -0.25200,
,,,9.468000000000,  -0.25200,
,,,9.472000000000,  -0.25200,
,,,9.476000000000,  -0.25200,
,,,9.480000000000,  -0.25200,
,,,9.484000000000,  -0.25200,
,,,9.488000000000,  -0.25200,
,,,9.492000000000,  -0.25200,
,,,9.496000000000,  -0.25200,
,,,9.500000000000,  -0.25200,
,,,9.504000000000,  -0.25200,
,,,9.508000000000,  -0.25200,
,,,9.512000000000,  -0.25200,
,,,9.516000000000,  -0.25200,
,,,9.520000000000,  -0.25200,
,,,9.524000000000,  -0.25200,
,,,9.528000000000,  -0.25200,
,,,9.532000000000,  -0.25200,
,,,9.536000000000,  -0.25200,
,,,9.540000000000,  -0.25200,
,,,9.544000000000,  -0.25200,
,,,9.548000000000,  -0.25200,
,,,9.552000000000,  -0.25200,
,,,9.556000000000,  -0.25200,
,,,9.560000000000,  -0.25200,
,,,9.564000000000,  -0.25200,
,,,9.568000000000,  -0.25200,
,,,9.572000000000,  -0.25200,
,,,9.576000000000,  -0.25200,
,,,9.580000000000,  -0.25200,
,,,9.584000000000,  -0.25200,
,,,9.588000000000,  -0.25200,
,,,9.592000000000,  -0.25200,
,,,9.596000000000,  -0.25200,
,,,9.600000000000,  -0.25200,
,,,9.604000000000,  -0.25200,
,,,9.608000000000,  -0.25200,
,,,9.612000000000,  -0.25200,
,,,9.616000000000,  -0.25200,
,,,9.620000000000,  -0.25200,
,,,9.624000000000,  -0.25200,
,,,9.628000000000,  -0.25200,
,,,9.632000000000,  -0.25200,
,,,9.636000000000,  -0.25200,
,,,9.640000000000,  -0.25200,
,,,9.644000000000,  -0.25200,
,,,9.648000000000,  -0.25200,
,,,9.652000000000,  -0.25200,
,,,9.656000000000,  -0.25200,
,,,9.660000000000,  -0.25200,
,,,9.664000000000,  -0.25200,
,,,9.668000000000,  -0.25200,
,,,9.672000000000,  -0.25200,
,,,9.676000000000,  -0.25200,
,,,9.680000000000,  -0.25200,
,,,9.684000000000,  -0.25200,
,,,9.688000000000,  -0.25200,
,,,9.692000000000,  -0.25200,
,,,9.696000000000,  -0.25200,
,,,9.700000000000,  -0.25200,
,,,9.704000000000,  -0.25200,
,,,9.708000000000,  -0.25200,
,,,9.712000000000,  -0.25200,
,,,9.716000000000,  -0.25200,
,,,9.720000000000,  -0.25200,
,,,9.724000000000,  -0.25200,
,,,9.728000000000,  -0.25200,
,,,9.732000000000,  -0.25200,
,,,9.736000000000,  -0.25200,
,,,9.740000000000,  -0.25200,
,,,9.744000000000,  -0.25200,
,,,9.748000000000,  -0.25200,
,,,9.752000000000,  -0.25200,
,,,9.756000000000,  -0.25200,
,,,9.760000000000,  -0.25200,
,,,9.764000000000,  -0.25200,
,,,9.768000000000,  -0.25200,
,,,9.772000000000,  -0.25200,
,,,9.776000000000,  -0.25200,
,,,9.780000000000,  -0.25200,
,,,9.784000000000,  -0.25200,
,,,9.788000000000,  -0.25200,
,,,9.792000000000,  -0.25200,
,,,9.796000000000,  -0.25200,
,,,9.800000000000,  -0.25200,
,,,9.804000000000,  -0.25200,
,,,9.808000000000,  -0.25200,
,,,9.812000000000,  -0.25200,
,,,9.816000000000,  -0.25200,
,,,9.820000000000,  -0.25200,
,,,9.824000000000,  -0.25200,
,,,9.828000000000,  -0.25200,
,,,9.832000000000,  -0.25200,
,,,9.836000000000,  -0.25200,
,,,9.840000000000,  -0.25200,
,,,9.844000000000,  -0.25200,
,,,9.848000000000,  -0.25200,
,,,9.852000000000,  -0.25200,
,,,9.856000000000,  -0.25200,
,,,9.860000000000,  -0.25200,
,,,9.864000000000,  -0.25200,
,,,9.868000000000,  -0.25200,
,,,9.872000000000,  -0.25200,
,,,9.876000000000,  -0.25200,
,,,9.880000000000,  -0.25200,
,,,9.884000000000,  -0.25200,
,,,9.888000000000,  -0.25200,
,,,9.892000000000,  -0.25200,
,,,9.896000000000,  -0.25200,
,,,9.900000000000,  -0.25200,
,,,9.904000000000,  -0.25200,
,,,9.908000000000,  -0.25200,
,,,9.912000000000,  -0.25200,
,,,9.916000000000,  -0.25200,
,,,9.920000000000,  -0.25200,
,,,9.924000000000,  -0.25200,
,,,9.928000000000,  -0.25200,
,,,9.932000000000,  -0.25200,
,,,9.936000000000,  -0.25200,
,,,9.940000000000,  -0.25200,
,,,9.944000000000,  -0.25200,
,,,9.948000000000,  -0.25200,
,,,9.952000000000,  -0.25200,
,,,9.956000000000,  -0.25200,
,,,9.960000000000,  -0.25200,
,,,9.964000000000,  -0.25200,
,,,9.968000000000,  -0.25200,
,,,9.972000000000,  -0.25200,
,,,9.976000000000,  -0.25200,
,,,9.980000000000,  -0.25200,
,,,9.984000000000,  -0.25200,
,,,9.988000000000,  -0.25200,
,,,9.992000000000,  -0.25200,
,,,9.996000000000,  -0.25200,
